164.606
179.255
193.445
206.922
219.41
230.603
240.287
248.326
254.602
259.035
261.564
262.157
260.904
258.01
253.647
247.933
240.979
232.908
224.037
214.888
205.999
197.792
190.486
184.161
178.644
173.593
168.409
162.058
153.4
141.437
125.721
106.486
84.679
61.696
39.165
19.13
3.773
-4.555
-4.382
4.23
20.598
43.307
70.019
98.56
124.157
138.785
138.885
123.626
97.112
70.841
44.67
9
-50.184
-152.603
-295.934
-455.865
-601.054
-697.1
-732.54
-722.216
-689.185
-656.661
-635.431
-620.97
-605.079
-583.591
-556.78
-528.635
-503.932
-483.812
-467.05
-452.316
-437.671
-421.555
-403.661
-383.913
-362.396
-339.757
-316.767
-294.123
-272.413
-252.129
-233.764
-217.435
-203.069
-190.981
-179.472
-166.883
-154.997
-144.125
-137.844
-140.546
-146.948
-153.495
-154.893
-143.95
-126.67
-108.178
-92.028
-84.136
-80.271
-76.163
-70.909
-61.993
-51.05
-40.155
-29.05
-18.091
-7.26
3.704
14.387
24.445
33.857
42.578
50.556
57.779
64.244
69.963
75.001
79.446
83.326
86.664
89.502
91.879
93.847
95.468
96.805
97.906
98.813
99.56
100.17
100.668
101.073
101.398
101.646
101.82
101.928
101.98
101.99
101.969
101.921
101.85
101.761
101.659
101.551
101.443
101.341
101.248
101.171
101.114
101.084
101.085
101.117
101.18
101.271
101.389
101.53
101.691
101.866
102.052
102.242
102.433
102.62
102.798
102.961
103.103
103.22
103.305
103.353
103.358
103.314
103.217
103.062
102.843
102.556
102.197
101.761
101.246
100.647
99.963
99.191
98.33
97.377
96.334
95.201
93.978
92.666
91.269
89.787
88.226
86.588
84.878
83.101
81.262
79.368
77.425
75.441
73.421
71.375
69.31
67.234
65.157
63.087
61.034
59.006
57.013
55.064
53.17
51.339
49.581
47.904
46.319
44.833
43.456
42.194
41.056
40.048
39.176
38.446
37.863
37.431
37.151
37.026
37.055
37.238
37.572
38.052
38.672
39.428
40.31
41.311
42.421
43.629
44.927
46.305
47.751
49.255
50.802
52.379
53.973
55.571
57.156
58.713
60.225
61.678
63.061
64.365
65.577
66.683
67.663
68.502
69.192
69.725
70.091
70.286
70.309
70.169
69.898
69.526
69.08
68.583
68.047
67.486
66.93
66.41
65.95
65.576
65.288
65.08
64.971
64.951
64.99
65.021
64.915
64.541
63.792
62.573
60.813
58.431
55.314
51.357
46.472
40.594
33.761
25.959
17.071
7.138
-3.667
-14.968
-26.024
-36.212
-45.185
-52.383
-57.147
-59.204
-58.437
-55.39
-51.61
-48.148
-45.428
-44.616
-46.866
-52.174
-60.415
-68.683
-70.845
-64.51
-49.132
-25.613
1.249
32.464
72.877
127.409
202.98
300.146
414.143
533.375
639.007
712.098
733.174
693.52
596.462
451.405
277.067
90.797
-92.051
-253.566
-381.827
-470.616
-521.703
-548.12
-562.247
-570.125
-571.003
-556.979
-523.345
-473.668
-414.857
-353.686
-295.452
-239.145
-183.364
-134.769
-97.125
-75.595
-75.607
-88.469
-106.91
-124.887
-133.288
-134.076
-130.306
-122.25
-112.961
-102.181
-89.03
-75.407
-63.054
-53.176
-46.662
-43.446
-42.856
-44.379
-47.556
-51.588
-55.567
-58.946
-61.384
-62.758
-63.206
-62.752
-61.372
-59.149
-56.182
-52.564
-48.402
-43.768
-38.703
-33.303
-27.681
-21.965
-16.312
-10.839
-5.625
-0.726
3.831
8.029
11.849
15.289
18.364
21.104
23.545
25.722
27.663
29.407
31.002
32.501
33.969
35.453
36.981
38.574
40.243
41.996
43.843
45.783
47.807
49.905
52.073
54.305
56.603
58.963
61.377
63.833
66.323
68.838
71.372
73.919
76.471
79.021
81.562
84.09
86.6
89.086
91.541
93.957
96.323
98.633
100.877
103.047
105.136
107.136
109.041
110.848
112.554
114.158
115.658
117.056
118.354
119.555
120.663
121.683
122.621
123.484
124.278
125.012
125.695
126.336
126.945
127.533
128.11
128.689
129.281
129.898
130.553
131.256
132.022
132.861
133.787
134.809
135.941
137.192
138.574
140.096
141.767
143.592
145.58
147.733
150.056
152.549
155.213
158.047
161.049
164.216
167.542
171.022
174.65
178.418
182.317
186.338
190.47
194.702
199.022
203.417
207.875
212.382
216.924
221.488
226.059
230.623
235.166
239.673
244.131
248.524
252.839
257.063
261.184
265.188
269.066
272.808
276.405
279.85
283.137
286.26
289.216
292.002
294.616
297.057
299.326
301.425
303.357
305.125
306.734
308.19
309.5
310.671
311.71
312.626
313.427
314.121
314.718
315.228
315.659
316.021
316.325
316.58
316.795
316.98
317.144
317.294
317.438
317.582
317.733
317.895
318.072
318.269
318.487
318.729
318.996
319.287
319.602
319.941
320.3
320.676
321.066
321.466
321.872
322.277
322.677
323.068
323.442
323.796
324.124
324.421
324.68
324.898
325.069
325.188
325.251
325.255
325.197
325.074
324.885
324.629
324.305
323.915
323.459
322.939
322.358
321.719
321.024
320.278
319.486
318.652
317.781
316.881
315.956
315.012
314.056
313.094
312.132
311.176
310.232
309.304
308.399
307.521
306.674
305.862
305.09
304.36
303.674
303.035
302.443
301.898
301.401
300.95
300.543
300.177
299.849
299.557
299.295
299.059
298.846
298.65
298.465
298.288
298.112
297.933
297.746
297.545
297.326
297.084
296.815
296.515
296.18
295.808
295.396
294.942
294.442
293.897
293.304
292.664
291.976
291.241
290.459
289.633
288.765
287.856
286.911
285.933
284.926
283.893
282.84
281.771
280.688
279.596
278.499
277.399
276.3
275.204
274.113
273.029
271.954
270.888
269.831
268.784
267.745
266.714
265.688
264.668
263.65
262.632
261.613
260.591
259.562
258.526
257.479
256.419
255.345
254.252
253.139
252.003
250.841
249.651
248.433
247.185
245.907
244.6
243.266
241.906
240.524
239.124
237.709
236.285
234.859
233.437
232.026
230.636
229.275
227.952
226.677
225.458
224.306
223.227
222.23
221.321
220.507
219.793
219.183
218.68
218.286
218.005
217.836
217.78
217.836
218.003
218.281
218.665
219.152
219.734
220.404
221.154
221.972
222.847
223.765
224.713
225.674
226.637
227.591
228.523
229.421
230.267
231.041
231.727
232.314
232.79
233.148
233.381
233.49
233.484
233.39
233.23
233.02
232.773
232.487
232.166
231.82
231.463
231.114
230.786
230.476
230.193
229.945
229.723
229.516
229.266
228.867
228.23
227.275
225.938
224.205
222.031
219.349
216.099
212.205
207.614
202.326
196.284
189.377
181.611
173.088
164.117
155.273
147.09
139.969
134.365
130.744
129.395
130.407
133.375
137.319
141.215
144.234
145.628
144.736
141.172
134.969
127.071
119.415
114.425
114.532
121.927
139.009
168.215
211.37
269.256
339.116
414.597
489.774
559.107
623.6
691.06
763.627
837.985
895.486
902.816
836.855
689.197
477.623
246.484
37.847
-119.541
-218.913
-277.578
-317.813
-354.449
-391.013
-419.874
-429.816
-415.162
-377.864
-324.541
-263.653
-201.599
-141.593
-85.738
-36.413
3.869
33.815
53.394
63.661
66.566
63.814
57.168
49.289
42.846
39.427
39.737
43.646
50.389
59.297
69.609
79.929
88.706
94.99
98.391
99.025
97.384
93.874
88.852
82.946
76.92
71.335
66.554
62.707
59.712
57.526
56.141
55.496
55.489
56.016
56.966
58.261
59.86
61.715
63.774
65.955
68.151
70.252
72.147
73.767
75.074
76.04
76.65
76.899
76.794
76.369
75.67
74.739
73.61
72.309
70.858
69.29
67.648
65.975
64.316
62.703
61.154
59.687
58.314
57.041
55.87
54.792
53.792
52.857
51.981
51.155
50.374
49.631
48.913
48.209
47.507
46.795
46.062
45.297
44.488
43.626
42.701
41.705
40.633
39.48
38.237
36.897
35.455
33.903
32.235
30.448
28.537
26.499
24.332
22.037
19.616
17.072
14.41
11.635
8.755
5.777
2.711
-0.432
-3.64
-6.901
-10.202
-13.527
-16.862
-20.191
-23.499
-26.769
-29.985
-33.131
-36.193
-39.154
-42.001
-44.721
-47.3
-49.726
-51.988
-54.076
-55.981
-57.694
-59.21
-60.521
-61.625
-62.518
-63.199
-63.668
-63.926
-63.976
-63.823
-63.472
-62.929
-62.202
-61.301
-60.235
-59.015
-57.655
-56.167
-54.565
-52.862
-51.074
-49.215
-47.299
-45.342
-43.357
-41.358
-39.359
-37.374
-35.414
-33.492
-31.619
-29.805
-28.06
-26.392
-24.809
-23.318
-21.924
-20.633
-19.448
-18.372
-17.406
-16.552
-15.81
-15.178
-14.655
-14.238
-13.921
-13.702
-13.574
-13.53
-13.566
-13.672
-13.842
-14.068
-14.342
-14.656
-15.003
-15.374
-15.763
-16.16
-16.561
-16.957
-17.342
-17.711
-18.058
-18.378
-18.667
-18.921
-19.136
-19.309
-19.438
-19.521
-19.556
-19.542
-19.479
-19.367
-19.206
-18.998
-18.744
-18.446
-18.107
-17.73
-17.317
-16.873
-16.4
-15.904
-15.387
-14.855
-14.311
-13.759
-13.204
-12.65
-12.1
-11.558
-11.029
-10.515
-10.021
-9.548
-9.101
-8.683
-8.295
-7.942
-7.625
-7.347
-7.11
-6.916
-6.767
-6.665
-6.611
-6.608
-6.654
-6.753
-6.904
-7.108
-7.365
-7.675
-8.038
-8.452
-8.918
-9.434
-10
-10.613
-11.274
-11.98
-12.73
-13.522
-14.356
-15.228
-16.139
-17.084
-18.064
-19.075
-20.116
-21.184
-22.277
-23.393
-24.53
-25.686
-26.857
-28.042
-29.237
-30.439
-31.646
-32.855
-34.063
-35.268
-36.466
-37.656
-38.836
-40.004
-41.158
-42.296
-43.416
-44.518
-45.599
-46.659
-47.696
-48.709
-49.697
-50.659
-51.595
-52.505
-53.387
-54.243
-55.07
-55.869
-56.64
-57.382
-58.095
-58.78
-59.436
-60.066
-60.67
-61.25
-61.807
-62.343
-62.86
-63.361
-63.848
-64.321
-64.784
-65.239
-65.688
-66.132
-66.575
-67.019
-67.466
-67.918
-68.378
-68.846
-69.325
-69.815
-70.317
-70.832
-71.361
-71.904
-72.461
-73.032
-73.618
-74.218
-74.832
-75.46
-76.098
-76.746
-77.401
-78.059
-78.717
-79.37
-80.014
-80.644
-81.254
-81.839
-82.394
-82.913
-83.387
-83.812
-84.179
-84.483
-84.717
-84.874
-84.949
-84.936
-84.832
-84.633
-84.336
-83.941
-83.445
-82.849
-82.155
-81.364
-80.478
-79.5
-78.434
-77.285
-76.058
-74.756
-73.388
-71.959
-70.478
-68.956
-67.403
-65.829
-64.246
-62.668
-61.107
-59.577
-58.091
-56.656
-55.28
-53.974
-52.753
-51.633
-50.63
-49.749
-48.992
-48.365
-47.869
-47.5
-47.246
-47.072
-46.951
-46.859
-46.781
-46.715
-46.651
-46.571
-46.449
-46.26
-45.984
-45.626
-45.19
-44.664
-44.055
-43.39
-42.733
-42.205
-41.921
-41.963
-42.391
-43.241
-44.562
-46.442
-48.968
-52.203
-56.199
-60.938
-66.43
-72.795
-80.011
-87.883
-96.065
-103.932
-110.887
-116.564
-120.494
-122.042
-120.925
-117.172
-111.186
-104.152
-97.204
-91.094
-86.878
-85.65
-87.77
-92.902
-99.91
-106.385
-109.633
-106.999
-95.002
-69.724
-29.678
22.86
84.415
150.365
220.153
301.595
399.229
509.805
619.957
698.471
714.834
652.662
508.935
307.883
86.16
-123.859
-291.506
-407.441
-478.442
-515.739
-539.422
-559.391
-575.28
-583.812
-575.158
-546.331
-501.892
-447.475
-390.981
-337.214
-287.213
-242.428
-204.498
-174.158
-151.595
-136.155
-126.362
-121.017
-119.283
-119.608
-119.766
-118.371
-114.831
-109.069
-101.693
-93.234
-84.023
-74.96
-67.411
-62.197
-59.636
-59.682
-61.82
-65.613
-70.756
-76.677
-82.604
-87.958
-92.369
-95.675
-97.953
-99.257
-99.58
-98.977
-97.555
-95.429
-92.729
-89.565
-86
-82.1
-77.963
-73.701
-69.462
-65.395
-61.597
-58.127
-55.018
-52.288
-49.953
-48.021
-46.472
-45.265
-44.358
-43.71
-43.293
-43.085
-43.053
-43.154
-43.339
-43.555
-43.769
-43.962
-44.122
-44.239
-44.305
-44.316
-44.28
-44.213
-44.125
-44.025
-43.915
-43.796
-43.676
-43.562
-43.463
-43.386
-43.339
-43.325
-43.35
-43.42
-43.54
-43.711
-43.937
-44.217
-44.552
-44.945
-45.397
-45.913
-46.493
-47.139
-47.852
-48.633
-49.482
-50.398
-51.379
-52.422
-53.523
-54.679
-55.883
-57.131
-58.415
-59.73
-61.069
-62.422
-63.783
-65.142
-66.49
-67.818
-69.117
-70.376
-71.586
-72.738
-73.821
-74.828
-75.748
-76.575
-77.299
-77.915
-78.416
-78.795
-79.049
-79.174
-79.165
-79.021
-78.74
-78.32
-77.764
-77.071
-76.244
-75.286
-74.199
-72.99
-71.662
-70.22
-68.672
-67.024
-65.283
-63.456
-61.553
-59.583
-57.554
-55.477
-53.36
-51.215
-49.051
-46.877
-44.704
-42.54
-40.394
-38.275
-36.19
-34.147
-32.151
-30.21
-28.328
-26.51
-24.759
-23.079
-21.472
-19.939
-18.481
-17.099
-15.793
-14.561
-13.405
-12.321
-11.308
-10.365
-9.487
-8.673
-7.917
-7.217
-6.566
-5.961
-5.394
-4.861
-4.357
-3.874
-3.407
-2.951
-2.5
-2.049
-1.592
-1.125
-0.643
-0.143
0.378
0.924
1.495
2.094
2.721
3.376
4.06
4.771
5.508
6.272
7.061
7.873
8.707
9.562
10.435
11.324
12.227
13.141
14.063
14.99
15.918
16.844
17.764
18.675
19.574
20.455
21.316
22.153
22.962
23.741
24.486
25.195
25.867
26.498
27.09
27.641
28.153
28.624
29.058
29.454
29.815
30.143
30.438
30.704
30.942
31.154
31.342
31.508
31.655
31.785
31.898
31.998
32.087
32.165
32.236
32.3
32.361
32.419
32.478
32.538
32.602
32.672
32.749
32.833
32.928
33.031
33.145
33.268
33.4
33.541
33.688
33.841
33.997
34.155
34.314
34.47
34.623
34.771
34.911
35.043
35.165
35.277
35.378
35.468
35.547
35.614
35.671
35.717
35.753
35.778
35.794
35.801
35.799
35.788
35.769
35.742
35.708
35.667
35.62
35.567
35.509
35.447
35.381
35.311
35.239
35.165
35.091
35.016
34.942
34.868
34.795
34.722
34.648
34.573
34.493
34.408
34.316
34.213
34.099
33.972
33.828
33.667
33.486
33.285
33.063
32.818
32.55
32.258
31.944
31.608
31.251
30.876
30.486
30.083
29.672
29.256
28.841
28.43
28.028
27.641
27.275
26.935
26.628
26.363
26.145
25.983
25.885
25.86
25.914
26.055
26.29
26.625
27.065
27.615
28.277
29.055
29.951
30.965
32.096
33.343
34.704
36.175
37.752
39.43
41.204
43.063
45.001
47.007
49.07
51.178
53.318
55.475
57.636
59.787
61.917
64.017
66.074
68.072
69.993
71.817
73.532
75.127
76.591
77.916
79.1
80.15
81.09
81.944
82.733
83.47
84.162
84.812
85.432
86.04
86.655
87.296
87.973
88.687
89.446
90.248
91.069
91.851
92.482
92.848
92.846
92.402
91.471
90.006
87.932
85.171
81.658
77.323
72.154
66.111
59.056
51.018
42.185
32.924
23.892
15.712
8.789
3.669
1.014
0.983
3.41
7.656
12.279
16.182
18.739
18.926
15.817
9.495
0.711
-8.583
-15.087
-16.346
-10.074
6.974
37.635
83.974
144.673
214.19
287.245
359.238
431.043
508.633
589.471
667.107
727.236
744.161
705.12
604.88
448.12
262.2
73.918
-90.426
-209.109
-281.888
-318.785
-336.778
-352.664
-372.033
-392.066
-404.082
-401.398
-383.256
-352.926
-316.802
-279.166
-240.88
-202.342
-163.786
-126.556
-93.458
-66.298
-45.457
-30.886
-22.323
-19.112
-20.351
-24.297
-28.238
-30.283
-29.623
-25.928
-19.363
-10.35
0.618
12.489
23.638
33.016
40.2
45.086
47.945
49.041
48.543
46.869
44.658
42.354
40.195
38.284
36.553
35.005
33.748
32.816
32.183
31.815
31.656
31.683
31.935
32.436
33.178
34.146
35.299
36.596
38.027
39.568
41.177
42.787
44.306
45.663
46.828
47.794
48.566
49.151
49.548
49.767
49.832
49.766
49.59
49.316
48.947
48.49
47.968
47.413
46.864
46.35
45.885
45.477
45.127
44.835
44.601
44.413
44.251
44.101
43.952
43.795
43.63
43.447
43.235
42.984
42.68
42.312
41.872
41.35
40.737
40.026
39.21
38.288
37.259
36.121
34.872
33.511
32.036
30.448
28.747
26.935
25.015
22.992
20.869
18.656
16.361
13.991
11.558
9.072
6.544
3.987
1.411
-1.17
-3.745
-6.301
-8.825
-11.305
-13.729
-16.085
-18.361
-20.546
-22.63
-24.602
-26.453
-28.175
-29.759
-31.2
-32.49
-33.623
-34.597
-35.407
-36.051
-36.528
-36.838
-36.982
-36.962
-36.781
-36.444
-35.956
-35.322
-34.548
-33.644
-32.615
-31.472
-30.222
-28.876
-27.443
-25.934
-24.358
-22.725
-21.046
-19.331
-17.589
-15.83
-14.063
-12.296
-10.54
-8.801
-7.088
-5.408
-3.769
-2.177
-0.638
0.842
2.26
3.611
4.891
6.097
7.228
8.281
9.255
10.148
10.962
11.696
12.352
12.93
13.432
13.862
14.222
14.515
14.745
14.914
15.026
15.086
15.096
15.059
14.98
14.862
14.708
14.523
14.309
14.07
13.809
13.531
13.237
12.932
12.619
12.301
11.98
11.661
11.347
11.04
10.744
10.461
10.193
9.945
9.716
9.509
9.325
9.165
9.03
8.92
8.836
8.777
8.745
8.739
8.758
8.804
8.875
8.971
9.091
9.236
9.404
9.595
9.807
10.04
10.291
10.56
10.844
11.14
11.447
11.761
12.079
12.397
12.712
13.02
13.318
13.601
13.867
14.112
14.334
14.528
14.694
14.828
14.928
14.992
15.019
15.008
14.956
14.864
14.73
14.553
14.334
14.073
13.768
13.422
13.033
12.603
12.133
11.624
11.079
10.499
9.887
9.247
8.582
7.897
7.195
6.481
5.759
5.034
4.311
3.593
2.885
2.191
1.515
0.86
0.23
-0.373
-0.946
-1.487
-1.994
-2.467
-2.904
-3.305
-3.671
-4.001
-4.295
-4.556
-4.782
-4.976
-5.139
-5.274
-5.382
-5.467
-5.532
-5.58
-5.617
-5.646
-5.673
-5.702
-5.738
-5.787
-5.854
-5.944
-6.063
-6.216
-6.406
-6.64
-6.92
-7.251
-7.636
-8.075
-8.572
-9.125
-9.736
-10.403
-11.124
-11.897
-12.719
-13.588
-14.498
-15.447
-16.429
-17.439
-18.472
-19.52
-20.576
-21.634
-22.684
-23.717
-24.725
-25.697
-26.625
-27.498
-28.307
-29.039
-29.685
-30.234
-30.676
-31.001
-31.199
-31.261
-31.181
-30.952
-30.569
-30.03
-29.331
-28.473
-27.457
-26.287
-24.966
-23.5
-21.894
-20.155
-18.292
-16.315
-14.23
-12.048
-9.782
-7.442
-5.044
-2.601
-0.128
2.359
4.842
7.305
9.729
12.098
14.401
16.623
18.749
20.762
22.641
24.369
25.934
27.33
28.547
29.582
30.436
31.121
31.665
32.097
32.437
32.702
32.899
33.04
33.143
33.232
33.332
33.461
33.625
33.826
34.074
34.362
34.668
34.929
35.036
34.884
34.381
33.46
32.08
30.186
27.699
24.536
20.629
15.928
10.424
4.087
-3.196
-11.433
-20.465
-29.94
-39.256
-47.815
-55.178
-60.854
-64.196
-64.778
-62.558
-57.987
-52.237
-46.565
-41.861
-39.071
-39.31
-43.231
-50.635
-60.23
-69.403
-75.227
-74.829
-64.992
-42.187
-2.989
52.366
119.677
194.608
271.918
352.143
442.274
540.319
638.718
720.293
754.464
723.659
622.027
457.209
259.084
55.981
-126.939
-271.761
-378.306
-452.209
-504.727
-546.491
-579.512
-601.787
-606.818
-589.593
-551.788
-498.854
-438.62
-377.375
-317.861
-261.372
-209.22
-163.775
-127.131
-99.806
-81.028
-69.332
-63.647
-63.209
-66.696
-71.844
-76.28
-78.617
-78.523
-76.345
-72.47
-67.197
-61.046
-55.077
-50.621
-48.418
-48.563
-50.733
-54.39
-59.059
-64.318
-69.585
-74.182
-77.691
-79.941
-80.936
-80.839
-79.779
-77.847
-75.188
-71.976
-68.359
-64.482
-60.476
-56.44
-52.513
-48.828
-45.48
-42.547
-40.074
-38.075
-36.555
-35.502
-34.881
-34.65
-34.77
-35.196
-35.889
-36.804
-37.883
-39.068
-40.296
-41.515
-42.688
-43.786
-44.787
-45.681
-46.46
-47.127
-47.691
-48.161
-48.542
-48.839
-49.053
-49.191
-49.26
-49.273
-49.239
-49.168
-49.07
-48.952
-48.825
-48.695
-48.572
-48.461
-48.367
-48.299
-48.266
-48.278
-48.345
-48.479
-48.687
-48.981
-49.368
-49.857
-50.454
-51.164
-51.99
-52.935
-54.001
-55.189
-56.498
-57.926
-59.471
-61.127
-62.89
-64.754
-66.71
-68.75
-70.864
-73.044
-75.278
-77.556
-79.867
-82.198
-84.538
-86.875
-89.196
-91.488
-93.739
-95.935
-98.064
-100.114
-102.074
-103.933
-105.682
-107.31
-108.81
-110.175
-111.398
-112.475
-113.402
-114.174
-114.79
-115.25
-115.554
-115.703
-115.701
-115.55
-115.256
-114.824
-114.261
-113.574
-112.768
-111.853
-110.837
-109.728
-108.536
-107.27
-105.941
-104.558
-103.133
-101.675
-100.196
-98.705
-97.212
-95.727
-94.257
-92.812
-91.4
-90.029
-88.705
-87.435
-86.226
-85.083
-84.009
-83.009
-82.085
-81.239
-80.471
-79.782
-79.171
-78.637
-78.178
-77.792
-77.476
-77.227
-77.041
-76.914
-76.842
-76.818
-76.838
-76.896
-76.986
-77.101
-77.236
-77.385
-77.543
-77.704
-77.862
-78.013
-78.152
-78.274
-78.373
-78.447
-78.49
-78.501
-78.475
-78.411
-78.307
-78.163
-77.977
-77.75
-77.483
-77.175
-76.829
-76.446
-76.028
-75.576
-75.095
-74.585
-74.052
-73.498
-72.928
-72.344
-71.752
-71.153
-70.553
-69.955
-69.361
-68.776
-68.202
-67.643
-67.1
-66.578
-66.079
-65.604
-65.156
-64.737
-64.346
-63.985
-63.653
-63.351
-63.077
-62.83
-62.61
-62.415
-62.242
-62.09
-61.957
-61.84
-61.735
-61.64
-61.552
-61.468
-61.385
-61.299
-61.207
-61.108
-60.999
-60.876
-60.739
-60.584
-60.41
-60.214
-59.996
-59.753
-59.485
-59.19
-58.868
-58.519
-58.145
-57.744
-57.319
-56.87
-56.4
-55.91
-55.402
-54.879
-54.343
-53.797
-53.244
-52.687
-52.129
-51.574
-51.024
-50.483
-49.952
-49.434
-48.932
-48.446
-47.979
-47.532
-47.107
-46.704
-46.324
-45.969
-45.639
-45.333
-45.052
-44.795
-44.56
-44.345
-44.15
-43.972
-43.809
-43.658
-43.515
-43.379
-43.245
-43.109
-42.969
-42.819
-42.657
-42.477
-42.276
-42.05
-41.796
-41.511
-41.192
-40.837
-40.443
-40.009
-39.534
-39.015
-38.453
-37.845
-37.192
-36.493
-35.749
-34.961
-34.129
-33.255
-32.342
-31.391
-30.406
-29.389
-28.344
-27.274
-26.183
-25.075
-23.956
-22.83
-21.701
-20.576
-19.46
-18.356
-17.27
-16.206
-15.169
-14.161
-13.186
-12.248
-11.348
-10.489
-9.673
-8.902
-8.176
-7.497
-6.865
-6.279
-5.738
-5.239
-4.781
-4.36
-3.973
-3.616
-3.284
-2.972
-2.673
-2.383
-2.092
-1.794
-1.479
-1.139
-0.765
-0.346
0.125
0.66
1.268
1.957
2.737
3.617
4.604
5.709
6.938
8.3
9.801
11.449
13.247
15.202
17.317
19.592
22.027
24.623
27.378
30.287
33.349
36.557
39.908
43.397
47.019
50.767
54.634
58.61
62.683
66.843
71.076
75.368
79.705
84.069
88.448
92.831
97.209
101.566
105.886
110.145
114.32
118.398
122.363
126.201
129.906
133.473
136.917
140.271
143.572
146.851
150.141
153.455
156.813
160.249
163.789
167.468
171.316
175.331
179.515
183.87
188.367
192.955
197.537
201.936
205.975
209.493
212.336
214.396
215.555
215.651
214.547
212.143
208.358
203.215
196.716
188.769
179.453
169.041
158.007
147.073
136.926
128.061
121.083
116.712
115.374
117.211
121.761
128.114
135.59
143.307
150.393
156.257
160.274
164.178
170.868
180.943
196.113
215.093
236.238
266.97
312.529
377.08
462.211
555.14
643.996
725.2
800.248
876.872
958.05
1025.738
1047.416
994.691
849.526
626.269
368.797
122.704
-68.672
-187.789
-246.308
-264.368
-269.041
-274.695
-279.002
-274.924
-251.861
-207.582
-148.779
-83.513
-19.842
38.411
90.496
135.384
172.531
201.836
223.931
240.574
253.036
261.781
267.594
271.619
275.169
279.606
285.311
291.766
298.663
305.87
313.07
319.832
325.377
328.709
329.49
327.951
324.399
319.268
312.977
305.921
298.718
292.066
286.367
281.776
278.301
275.831
274.321
273.745
274.001
274.925
276.34
278.104
280.121
282.296
284.496
286.529
288.182
289.327
289.928
289.978
289.496
288.476
286.902
284.82
282.286
279.343
276.051
272.414
268.437
264.244
259.982
255.779
251.857
248.354
245.267
242.648
240.459
238.476
236.567
234.689
232.473
229.444
225.726
221.66
217.531
214.385
211.254
204.866
195.852
186.315
181.543
192.232
217.974
248.315
268.125
255.94
207.072
137.827
72.413
38.304
46.336
83.695
127.919
158.181
165.336
155.045
139.391
126.229
117.649
111.747
104.866
96.31
87.132
77.893
69.188
61.104
53.509
46.553
40.201
34.029
27.689
21.089
14.301
7.504
0.776
-5.927
-12.634
-19.293
-25.823
-32.185
-38.387
-44.482
-50.512
-56.481
-62.374
-68.169
-73.856
-79.432
-84.891
-90.226
-95.431
-100.494
-105.409
-110.168
-114.762
-119.184
-123.425
-127.477
-131.336
-134.997
-138.456
-141.71
-144.755
-147.588
-150.214
-152.64
-154.869
-156.906
-158.752
-160.41
-161.89
-163.198
-164.335
-165.299
-166.075
-166.655
-167.039
-167.242
-167.282
-167.164
-166.875
-166.375
-165.628
-164.619
-163.372
-161.924
-160.289
-158.464
-156.415
-154.163
-151.83
-149.461
-146.964
-144.1
-140.561
-136.261
-131.445
-126.42
-121.293
-116.226
-111.499
-107.727
-105.86
-106.313
-108.736
-112.416
-116.643
-120.821
-124.52
-126.915
-126.594
-122.832
-115.762
-106.117
-95.155
-83.837
-72.587
-62.107
-53.6
-47.749
-44.808
-44.497
-45.605
-47.242
-49.13
-50.873
-51.956
-52.074
-50.837
-48.12
-44.61
-40.807
-36.843
-32.901
-28.983
-25.073
-21.404
-18.143
-15.091
-12.105
-9.129
-6.083
-3.067
-0.17
2.653
5.435
8.157
10.81
13.361
15.769
18.052
20.226
22.295
24.268
26.135
27.883
29.515
31.031
32.436
33.733
34.918
35.984
36.927
37.742
38.432
38.998
39.441
39.759
39.955
40.028
39.983
39.828
39.567
39.204
38.742
38.186
37.54
36.81
36
35.113
34.154
33.125
32.029
30.869
29.647
28.365
27.025
25.628
24.174
22.664
21.099
19.477
17.797
16.057
14.255
12.387
10.449
8.438
6.348
4.173
1.909
-0.451
-2.912
-5.482
-8.165
-10.969
-13.899
-16.96
-20.157
-23.494
-26.974
-30.598
-34.368
-38.284
-42.345
-46.548
-50.892
-55.371
-59.982
-64.719
-69.575
-74.542
-79.611
-84.772
-90.016
-95.328
-100.698
-106.11
-111.552
-117.007
-122.461
-127.897
-133.299
-138.649
-143.929
-149.123
-154.213
-159.181
-164.01
-168.685
-173.189
-177.508
-181.629
-185.539
-189.227
-192.682
-195.896
-198.861
-201.57
-204.019
-206.203
-208.12
-209.769
-211.15
-212.264
-213.115
-213.705
-214.038
-214.121
-213.958
-213.557
-212.924
-212.066
-210.994
-209.714
-208.238
-206.575
-204.735
-202.728
-200.565
-198.256
-195.81
-193.236
-190.544
-187.74
-184.832
-181.828
-178.734
-175.555
-172.297
-168.963
-165.556
-162.079
-158.533
-154.921
-151.242
-147.498
-143.688
-139.813
-135.875
-131.876
-127.819
-123.708
-119.547
-115.34
-111.094
-106.814
-102.505
-98.175
-93.829
-89.474
-85.115
-80.763
-76.425
-72.113
-67.839
-63.614
-59.45
-55.36
-51.358
-47.46
-43.681
-40.031
-36.523
-33.169
-29.987
-27
-24.225
-21.674
-19.353
-17.265
-15.409
-13.785
-12.379
-11.161
-10.099
-9.16
-8.316
-7.554
-6.855
-6.199
-5.555
-4.884
-4.161
-3.382
-2.549
-1.672
-0.761
0.164
1.039
1.762
2.222
2.297
1.896
0.947
-0.623
-2.865
-5.847
-9.649
-14.308
-19.853
-26.274
-33.473
-41.404
-50.066
-59.265
-68.686
-77.868
-86.083
-92.809
-97.808
-100.639
-100.792
-98.072
-92.414
-84.319
-75.128
-65.686
-56.13
-47.213
-39.913
-34.333
-30.617
-26.61
-17.02
-0.03
23.838
52.669
80.768
108.847
142.697
187.694
251.925
335.329
431.773
534.46
628.424
700.046
735.419
716.302
637.005
501.678
322.614
129.194
-51.669
-203.037
-311.674
-382.655
-428.92
-457.294
-476.109
-484.722
-475.103
-446.103
-399.256
-339.711
-276.845
-216.343
-160.843
-112.778
-73.815
-44.725
-25.351
-14.254
-9.051
-7.747
-9.041
-11.107
-11.546
-8.932
-2.796
6.575
18.021
30.564
43.636
56.221
66.932
74.906
79.755
81.522
80.781
78.051
73.671
68.149
62.118
56.075
50.391
45.297
40.844
37.066
34.021
31.715
30.115
29.189
28.892
29.172
29.984
31.26
32.92
34.899
37.126
39.51
41.956
44.361
46.616
48.658
50.45
51.967
53.198
54.14
54.796
55.179
55.337
55.327
55.203
55.023
54.81
54.557
54.283
54.023
53.811
53.705
53.688
53.637
53.586
53.705
54.136
55.079
56.493
57.997
59.432
60.894
62.172
62.887
62.599
60.603
56.861
52.17
46.955
41.308
35.6
30.195
25.654
23.007
22.343
22.675
23.404
24.175
24.572
24.447
23.374
20.454
15.575
9.427
2.474
-4.9
-12.422
-20.161
-27.958
-35.362
-42.285
-48.956
-55.537
-62.212
-69.04
-75.872
-82.659
-89.45
-96.226
-102.94
-109.54
-115.944
-122.116
-128.077
-133.83
-139.369
-144.683
-149.737
-154.506
-158.977
-163.135
-166.97
-170.472
-173.63
-176.436
-178.883
-180.966
-182.685
-184.039
-185.029
-185.655
-185.92
-185.831
-185.403
-184.652
-183.592
-182.24
-180.611
-178.721
-176.591
-174.239
-171.685
-168.949
-166.051
-163.012
-159.851
-156.59
-153.25
-149.849
-146.406
-142.937
-139.459
-135.989
-132.542
-129.131
-125.769
-122.467
-119.237
-116.087
-113.025
-110.058
-107.189
-104.423
-101.762
-99.206
-96.754
-94.406
-92.156
-90.001
-87.936
-85.954
-84.048
-82.21
-80.43
-78.701
-77.012
-75.353
-73.714
-72.086
-70.457
-68.819
-67.161
-65.475
-63.753
-61.987
-60.17
-58.294
-56.355
-54.348
-52.268
-50.111
-47.874
-45.556
-43.154
-40.669
-38.1
-35.448
-32.716
-29.905
-27.021
-24.069
-21.053
-17.979
-14.853
-11.682
-8.473
-5.235
-1.974
1.301
4.582
7.861
11.127
14.373
17.59
20.773
23.913
27.005
30.044
33.024
35.941
38.794
41.577
44.288
46.924
49.482
51.962
54.361
56.676
58.908
61.056
63.124
65.114
67.031
68.878
70.659
72.38
74.046
75.661
77.226
78.743
80.211
81.637
83.026
84.385
85.721
87.038
88.342
89.643
90.946
92.254
93.56
94.847
96.112
97.36
98.602
99.856
101.138
102.455
103.826
105.279
106.828
108.477
110.205
111.972
113.755
115.55
117.371
119.243
121.161
123.1
125.03
126.912
128.698
130.338
131.735
132.774
133.381
133.526
133.23
132.559
131.54
130.172
128.45
126.364
123.947
121.259
118.347
115.271
112.129
109.048
106.225
103.885
102.168
101.156
100.857
101.221
102.236
103.903
106.204
109.107
112.524
116.308
120.317
124.397
128.336
131.914
134.802
136.585
136.993
135.929
133.477
129.795
124.859
118.393
110.136
100.074
88.175
74.238
57.741
38.051
15.108
-10.36
-37.214
-64.581
-91.755
-117.92
-141.892
-162.228
-178.114
-189.798
-198.226
-204.149
-207.998
-210.125
-211.073
-211.742
-212.732
-213.895
-214.549
-214.162
-212.569
-209.842
-206.134
-201.359
-195.431
-188.58
-181.287
-173.991
-166.983
-160.415
-154.338
-148.911
-144.37
-140.853
-138.412
-137.028
-136.64
-137.208
-138.701
-141.074
-144.283
-148.281
-153.014
-158.459
-164.596
-171.371
-178.719
-186.527
-194.613
-202.832
-211.065
-219.223
-227.267
-235.184
-242.964
-250.607
-258.11
-265.414
-272.473
-279.28
-285.713
-291.56
-296.506
-300.062
-301.827
-301.581
-299.004
-293.663
-285.427
-274.444
-261.308
-247.352
-233.802
-221.481
-211.331
-204.225
-200.437
-199.668
-200.678
-200.674
-196.764
-186.637
-167.551
-136.828
-92.637
-33.676
37.923
115.538
192.955
264.54
330.869
399.508
472.637
546.593
602.795
609.17
543.716
399.04
193.612
-28.745
-226.109
-368.987
-450.108
-486.502
-501.199
-511.365
-523.189
-530.948
-524.796
-500.151
-458.841
-407.094
-353.109
-301.279
-252.16
-205.48
-160.713
-118.312
-79.846
-46.228
-17.236
7.116
26.361
40.119
48.225
51.333
51.319
50.107
48.63
47.5
47.202
47.988
50.123
53.5
57.189
60.082
61.692
61.913
60.96
59.284
57.172
54.895
52.972
51.967
52.221
53.876
56.871
60.998
66.113
72.093
78.779
85.998
93.561
101.306
109.095
116.797
124.299
131.509
138.346
144.762
150.739
156.265
161.353
166.033
170.327
174.267
177.89
181.228
184.334
187.251
190.011
192.652
195.206
197.69
200.113
202.454
204.667
206.713
208.566
210.224
211.705
213
214.078
214.878
215.318
215.364
215.027
214.332
213.303
211.927
210.171
208.1
205.887
203.621
201.263
198.547
194.993
190.372
184.805
178.532
171.798
164.816
157.822
151.508
147.184
145.778
147.323
151.12
155.932
160.643
164.456
166.199
163.833
155.547
140.78
120.296
96.065
70.173
44.052
19.121
-2.511
-18.695
-28.346
-31.701
-30.398
-26.535
-21.473
-16.181
-11.896
-9.963
-11.221
-15.766
-22.719
-30.691
-38.836
-46.763
-54.12
-60.553
-65.759
-69.599
-72.328
-74.485
-76.371
-78.05
-79.496
-80.62
-81.418
-81.946
-82.196
-82.096
-81.616
-80.766
-79.593
-78.184
-76.592
-74.836
-72.93
-70.881
-68.707
-66.439
-64.108
-61.738
-59.351
-56.962
-54.584
-52.231
-49.911
-47.632
-45.397
-43.207
-41.066
-38.978
-36.954
-35.003
-33.135
-31.353
-29.661
-28.059
-26.546
-25.124
-23.789
-22.539
-21.37
-20.276
-19.254
-18.297
-17.401
-16.558
-15.761
-15.002
-14.271
-13.561
-12.863
-12.17
-11.473
-10.763
-10.03
-9.268
-8.467
-7.619
-6.716
-5.75
-4.714
-3.6
-2.402
-1.116
0.264
1.743
3.323
5.008
6.799
8.697
10.701
12.81
15.024
17.34
19.753
22.262
24.86
27.545
30.311
33.152
36.063
39.038
42.071
45.155
48.283
51.448
54.644
57.86
61.09
64.325
67.556
70.774
73.971
77.138
80.266
83.348
86.376
89.344
92.244
95.072
97.82
100.485
103.062
105.546
107.934
110.223
112.411
114.496
116.475
118.348
120.113
121.769
123.315
124.75
126.074
127.286
128.386
129.374
130.25
131.016
131.673
132.223
132.669
133.013
133.258
133.406
133.461
133.424
133.297
133.082
132.782
132.399
131.935
131.393
130.774
130.082
129.318
128.484
127.584
126.617
125.585
124.49
123.334
122.119
120.847
119.522
118.147
116.725
115.26
113.756
112.217
110.645
109.043
107.415
105.764
104.093
102.405
100.706
98.999
97.29
95.587
93.895
92.22
90.566
88.939
87.341
85.778
84.251
82.76
81.308
79.897
78.535
77.228
75.983
74.806
73.704
72.687
71.759
70.926
70.188
69.542
68.987
68.523
68.154
67.887
67.723
67.658
67.685
67.796
67.977
68.206
68.45
68.664
68.812
68.876
68.844
68.722
68.513
68.219
67.848
67.407
66.905
66.357
65.772
65.151
64.517
63.906
63.376
63.011
62.869
62.978
63.353
63.98
64.837
65.894
67.104
68.406
69.752
71.101
72.421
73.693
74.871
75.892
76.676
77.122
77.149
76.706
75.75
74.263
72.253
69.74
66.759
63.351
59.527
55.268
50.565
45.407
39.801
33.797
27.43
20.729
13.737
6.478
-1.015
-8.669
-16.495
-24.593
-32.897
-41.223
-49.218
-56.269
-61.872
-65.714
-67.305
-66.122
-62.069
-55.334
-46.701
-37.707
-29.622
-23.359
-20.044
-20.502
-24.652
-31.807
-40.095
-46.377
-47.617
-40.852
-22.634
10.2
57.497
115.899
181.185
247.458
314.831
390.667
475.681
566.216
647.711
689.33
670.239
580.334
424.567
234.389
41.796
-124.702
-245.476
-323.748
-370.515
-401.479
-430.487
-458.905
-482.514
-493.206
-484.638
-458.187
-418.847
-373.159
-326.532
-281.35
-238.912
-200.959
-169.578
-145.904
-130.163
-121.759
-119.094
-120.757
-125.218
-130.074
-133.199
-133.39
-129.975
-123.059
-113.468
-101.939
-89.502
-77.71
-67.671
-60.018
-55.087
-52.662
-52.269
-53.466
-55.624
-57.998
-60.13
-61.721
-62.58
-62.722
-62.17
-60.928
-59.089
-56.753
-53.982
-50.831
-47.351
-43.596
-39.669
-35.707
-31.841
-28.176
-24.78
-21.709
-19.013
-16.729
-14.874
-13.446
-12.422
-11.788
-11.532
-11.635
-12.065
-12.779
-13.723
-14.838
-16.061
-17.342
-18.642
-19.927
-21.175
-22.368
-23.492
-24.543
-25.523
-26.428
-27.253
-27.996
-28.651
-29.219
-29.703
-30.108
-30.441
-30.708
-30.915
-31.068
-31.173
-31.234
-31.258
-31.249
-31.213
-31.157
-31.089
-31.021
-30.964
-30.928
-30.926
-30.967
-31.063
-31.223
-31.454
-31.766
-32.161
-32.647
-33.225
-33.9
-34.673
-35.545
-36.514
-37.581
-38.741
-39.992
-41.329
-42.747
-44.241
-45.803
-47.426
-49.102
-50.824
-52.581
-54.364
-56.163
-57.966
-59.762
-61.539
-63.284
-64.984
-66.628
-68.203
-69.697
-71.098
-72.398
-73.585
-74.651
-75.589
-76.392
-77.054
-77.57
-77.937
-78.151
-78.212
-78.12
-77.874
-77.476
-76.928
-76.235
-75.399
-74.425
-73.319
-72.084
-70.728
-69.257
-67.678
-66
-64.23
-62.378
-60.453
-58.467
-56.428
-54.347
-52.235
-50.102
-47.957
-45.811
-43.672
-41.55
-39.452
-37.387
-35.361
-33.381
-31.453
-29.582
-27.773
-26.027
-24.348
-22.738
-21.197
-19.726
-18.324
-16.991
-15.727
-14.529
-13.397
-12.328
-11.32
-10.369
-9.472
-8.625
-7.824
-7.063
-6.337
-5.643
-4.974
-4.325
-3.693
-3.073
-2.46
-1.849
-1.238
-0.622
0.002
0.637
1.286
1.949
2.63
3.328
4.043
4.774
5.522
6.284
7.059
7.845
8.641
9.444
10.253
11.065
11.877
12.687
13.492
14.288
15.073
15.842
16.593
17.323
18.028
18.706
19.355
19.971
20.553
21.1
21.609
22.078
22.507
22.894
23.239
23.541
23.802
24.02
24.199
24.338
24.441
24.509
24.544
24.549
24.525
24.476
24.402
24.307
24.193
24.062
23.918
23.763
23.599
23.429
23.256
23.082
22.908
22.737
22.571
22.409
22.254
22.106
21.967
21.838
21.718
21.61
21.513
21.427
21.352
21.288
21.233
21.187
21.147
21.113
21.082
21.054
21.027
20.999
20.969
20.934
20.894
20.847
20.791
20.724
20.644
20.55
20.44
20.314
20.172
20.014
19.839
19.648
19.443
19.225
18.995
18.754
18.504
18.247
17.984
17.718
17.453
17.191
16.937
16.694
16.467
16.26
16.08
15.93
15.816
15.742
15.714
15.739
15.821
15.967
16.181
16.471
16.84
17.295
17.838
18.474
19.205
20.031
20.953
21.97
23.08
24.281
25.568
26.939
28.389
29.914
31.507
33.162
34.874
36.635
38.439
40.275
42.132
44
45.869
47.729
49.567
51.37
53.126
54.82
56.448
58
59.467
60.836
62.088
63.214
64.213
65.084
65.826
66.442
66.933
67.315
67.616
67.866
68.089
68.299
68.498
68.694
68.904
69.149
69.45
69.814
70.23
70.684
71.178
71.705
72.235
72.716
73.046
73.12
72.861
72.209
71.121
69.573
67.52
64.899
61.678
57.834
53.359
48.295
42.614
36.217
29.186
21.752
14.325
7.56
2.026
-1.904
-3.703
-2.763
1.089
7.701
16.33
25.412
33.579
39.84
42.977
41.929
36.549
27.398
16.266
6.374
0.945
3.126
16.547
44.848
88.809
145.617
211.152
279.738
350.087
428.738
518.304
614.926
705.992
762.11
756.818
677.082
521.115
313.297
88.125
-123.83
-291.636
-405.022
-469.281
-495.223
-504.361
-508.205
-507.346
-498.851
-473.428
-429.151
-371.705
-307.601
-244.974
-188.382
-139.299
-99.805
-70.628
-51.172
-40.429
-36.337
-36.818
-40.556
-45.744
-49.916
-51.508
-49.914
-45.211
-38.329
-30.179
-21.312
-12.711
-5.735
-1.172
0.669
-0.093
-2.816
-6.92
-11.973
-17.381
-22.459
-26.749
-29.974
-32.038
-33.055
-33.107
-32.232
-30.526
-28.109
-25.103
-21.631
-17.815
-13.758
-9.584
-5.443
-1.461
2.251
5.61
8.573
11.112
13.215
14.884
16.132
16.98
17.457
17.596
17.432
17.01
16.378
15.594
14.719
13.803
12.887
11.998
11.153
10.362
9.632
8.962
8.345
7.777
7.254
6.772
6.331
5.929
5.559
5.212
4.879
4.551
4.222
3.886
3.536
3.168
2.777
2.36
1.914
1.436
0.921
0.362
-0.248
-0.915
-1.645
-2.446
-3.323
-4.282
-5.328
-6.464
-7.692
-9.014
-10.431
-11.943
-13.55
-15.25
-17.041
-18.921
-20.885
-22.93
-25.05
-27.239
-29.489
-31.792
-34.14
-36.524
-38.935
-41.361
-43.793
-46.22
-48.631
-51.016
-53.363
-55.661
-57.9
-60.068
-62.156
-64.152
-66.048
-67.835
-69.504
-71.049
-72.463
-73.74
-74.876
-75.866
-76.708
-77.398
-77.936
-78.32
-78.55
-78.627
-78.552
-78.33
-77.962
-77.455
-76.814
-76.044
-75.154
-74.15
-73.041
-71.835
-70.542
-69.172
-67.735
-66.241
-64.7
-63.124
-61.523
-59.908
-58.288
-56.673
-55.073
-53.497
-51.952
-50.447
-48.99
-47.587
-46.244
-44.969
-43.766
-42.641
-41.596
-40.635
-39.761
-38.976
-38.279
-37.671
-37.151
-36.719
-36.37
-36.104
-35.917
-35.803
-35.76
-35.781
-35.86
-35.992
-36.17
-36.386
-36.635
-36.91
-37.203
-37.51
-37.822
-38.136
-38.444
-38.742
-39.024
-39.285
-39.521
-39.726
-39.898
-40.032
-40.127
-40.179
-40.188
-40.151
-40.068
-39.938
-39.762
-39.539
-39.271
-38.959
-38.603
-38.208
-37.774
-37.306
-36.806
-36.278
-35.726
-35.154
-34.565
-33.964
-33.354
-32.739
-32.123
-31.508
-30.899
-30.298
-29.71
-29.138
-28.583
-28.05
-27.54
-27.056
-26.598
-26.169
-25.77
-25.401
-25.064
-24.759
-24.487
-24.247
-24.041
-23.868
-23.728
-23.619
-23.542
-23.494
-23.475
-23.483
-23.516
-23.572
-23.651
-23.751
-23.869
-24.004
-24.153
-24.316
-24.488
-24.668
-24.852
-25.039
-25.225
-25.408
-25.585
-25.754
-25.913
-26.059
-26.191
-26.306
-26.402
-26.476
-26.528
-26.554
-26.553
-26.524
-26.466
-26.377
-26.258
-26.107
-25.924
-25.711
-25.466
-25.19
-24.883
-24.547
-24.181
-23.789
-23.371
-22.929
-22.467
-21.987
-21.493
-20.988
-20.476
-19.959
-19.441
-18.926
-18.418
-17.919
-17.434
-16.964
-16.513
-16.084
-15.68
-15.301
-14.95
-14.626
-14.33
-14.062
-13.82
-13.603
-13.409
-13.236
-13.08
-12.939
-12.809
-12.686
-12.563
-12.436
-12.299
-12.144
-11.965
-11.755
-11.504
-11.205
-10.851
-10.433
-9.945
-9.378
-8.725
-7.981
-7.139
-6.195
-5.144
-3.984
-2.711
-1.328
0.166
1.768
3.474
5.279
7.178
9.164
11.228
13.363
15.562
17.815
20.113
22.443
24.794
27.153
29.507
31.841
34.139
36.386
38.568
40.678
42.706
44.644
46.48
48.198
49.786
51.242
52.561
53.734
54.759
55.636
56.375
57.007
57.562
58.06
58.52
58.946
59.345
59.741
60.153
60.598
61.095
61.639
62.23
62.891
63.627
64.422
65.231
65.945
66.468
66.735
66.694
66.323
65.592
64.424
62.758
60.545
57.732
54.339
50.323
45.512
39.905
33.684
27.232
21.271
16.467
13.211
12.048
13.599
17.983
25.01
33.762
42.375
49.322
53.521
53.717
49.072
39.745
26.55
12.009
0.214
-5.44
-1.601
15.601
49.051
100.344
168.017
246.088
327.611
407.925
487.631
569.813
653.025
728.288
774.859
769.634
698.615
561.429
378.401
180.46
-1.816
-146.916
-250.66
-320.679
-371.742
-415.048
-452.528
-480.435
-489.605
-474.511
-437.059
-382.551
-319.219
-254.169
-191.099
-132.76
-82.094
-41.707
-13.039
3.784
10.097
8.245
0.308
-11.561
-24.392
-35.416
-42.915
-46.052
-45.025
-40.735
-33.986
-25.698
-17.308
-10.239
-5.34
-2.909
-2.697
-4.146
-6.791
-10.211
-13.822
-16.976
-19.242
-20.419
-20.508
-19.664
-18.009
-15.614
-12.587
-9.093
-5.292
-1.348
2.583
6.421
10.1
13.549
16.709
19.515
21.912
23.891
25.462
26.636
27.427
27.844
27.895
27.622
27.079
26.327
25.437
24.455
23.418
22.361
21.313
20.298
19.336
18.43
17.573
16.763
16.002
15.297
14.651
14.06
13.518
13.014
12.543
12.096
11.667
11.248
10.829
10.406
9.972
9.525
9.06
8.572
8.053
7.495
6.888
6.225
5.494
4.688
3.796
2.81
1.723
0.529
-0.776
-2.197
-3.737
-5.398
-7.18
-9.081
-11.1
-13.233
-15.475
-17.821
-20.263
-22.793
-25.4
-28.076
-30.807
-33.583
-36.39
-39.215
-42.044
-44.863
-47.658
-50.413
-53.113
-55.743
-58.289
-60.736
-63.069
-65.275
-67.341
-69.253
-71
-72.572
-73.961
-75.156
-76.153
-76.944
-77.527
-77.898
-78.057
-78.004
-77.74
-77.269
-76.595
-75.725
-74.666
-73.426
-72.016
-70.445
-68.726
-66.87
-64.893
-62.806
-60.626
-58.367
-56.044
-53.673
-51.27
-48.85
-46.429
-44.021
-41.641
-39.303
-37.02
-34.806
-32.672
-30.629
-28.687
-26.856
-25.144
-23.556
-22.1
-20.778
-19.594
-18.549
-17.643
-16.876
-16.243
-15.742
-15.368
-15.114
-14.973
-14.936
-14.995
-15.138
-15.354
-15.633
-15.962
-16.328
-16.719
-17.123
-17.527
-17.919
-18.288
-18.622
-18.91
-19.141
-19.307
-19.398
-19.405
-19.321
-19.14
-18.856
-18.463
-17.96
-17.342
-16.609
-15.761
-14.799
-13.724
-12.54
-11.252
-9.864
-8.382
-6.815
-5.17
-3.457
-1.684
0.137
1.997
3.886
5.791
7.704
9.613
11.509
13.382
15.224
17.025
18.778
20.475
22.11
23.676
25.167
26.579
27.908
29.149
30.301
31.362
32.33
33.206
33.989
34.682
35.286
35.805
36.241
36.6
36.885
37.103
37.259
37.359
37.41
37.419
37.391
37.334
37.254
37.154
37.042
36.92
36.794
36.667
36.541
36.42
36.304
36.196
36.096
36.004
35.921
35.846
35.778
35.715
35.655
35.598
35.538
35.475
35.404
35.322
35.226
35.112
34.976
34.814
34.623
34.399
34.139
33.84
33.5
33.116
32.69
32.219
31.707
31.153
30.561
29.934
29.275
28.59
27.884
27.164
26.435
25.706
24.984
24.278
23.598
22.952
22.35
21.802
21.318
20.909
20.584
20.353
20.226
20.211
20.318
20.555
20.93
21.448
22.115
22.935
23.91
25.042
26.328
27.767
29.355
31.086
32.955
34.954
37.075
39.307
41.641
44.065
46.566
49.128
51.737
54.374
57.022
59.664
62.28
64.852
67.358
69.78
72.103
74.312
76.392
78.324
80.085
81.661
83.043
84.225
85.205
85.98
86.548
86.922
87.124
87.181
87.117
86.945
86.671
86.308
85.871
85.389
84.889
84.382
83.869
83.344
82.807
82.26
81.693
81.06
80.278
79.255
77.909
76.186
74.051
71.465
68.383
64.729
60.443
55.525
49.973
43.826
37.074
29.601
21.43
12.802
4.12
-4.076
-11.27
-17.125
-21.139
-22.586
-21.145
-16.935
-10.675
-3.603
3.28
8.875
11.89
11.251
6.252
-1.082
-7.533
-11.993
-11.969
-8.274
-1.661
16.78
50.927
103.2
176.724
259.063
344.454
435.832
527.032
618.356
699.515
740.449
722.752
633.982
476.326
281.534
81.769
-93.156
-221.799
-306.638
-357.91
-390.336
-417.284
-440.561
-457.533
-462.437
-451.148
-425.966
-391.42
-353.307
-316.114
-280.679
-246.245
-212.197
-178.461
-145.85
-116.053
-89.901
-67.39
-49.094
-35.644
-27.186
-23.696
-24.095
-26.146
-28.44
-30.349
-31.197
-30.743
-28.956
-25.748
-21.793
-18.408
-16.314
-15.747
-16.757
-18.981
-22.062
-25.772
-29.611
-32.93
-35.356
-36.7
-36.924
-36.189
-34.611
-32.262
-29.289
-25.854
-22.092
-18.143
-14.11
-10.077
-6.17
-2.511
0.81
3.714
6.17
8.167
9.698
10.772
11.421
11.68
11.59
11.188
10.505
9.579
8.455
7.185
5.832
4.444
3.057
1.702
0.402
-0.83
-1.983
-3.051
-4.043
-4.96
-5.806
-6.58
-7.277
-7.896
-8.442
-8.92
-9.338
-9.699
-10.009
-10.272
-10.496
-10.686
-10.847
-10.984
-11.101
-11.203
-11.298
-11.396
-11.504
-11.633
-11.791
-11.988
-12.233
-12.536
-12.903
-13.342
-13.86
-14.46
-15.149
-15.93
-16.807
-17.781
-18.854
-20.023
-21.286
-22.645
-24.098
-25.642
-27.273
-28.985
-30.766
-32.616
-34.533
-36.494
-38.477
-40.463
-42.426
-44.37
-46.309
-48.211
-50.044
-51.847
-53.65
-55.473
-57.353
-59.241
-61.049
-62.813
-64.604
-66.207
-67.37
-68.236
-68.786
-68.97
-69.315
-68.394
-64.819
-60.572
-56.255
-55.506
-62.685
-72.976
-83.17
-88.492
-82.376
-70.643
-58.231
-48.525
-47.115
-50.023
-53.216
-55.808
-55.346
-53.272
-51.439
-49.508
-47.725
-45.981
-43.914
-41.781
-39.788
-37.882
-36.059
-34.352
-32.765
-31.293
-29.936
-28.667
-27.449
-26.306
-25.26
-24.308
-23.455
-22.703
-22.049
-21.5
-21.06
-20.724
-20.487
-20.346
-20.297
-20.334
-20.455
-20.652
-20.92
-21.251
-21.64
-22.079
-22.56
-23.075
-23.617
-24.178
-24.749
-25.323
-25.893
-26.451
-26.99
-27.503
-27.984
-28.425
-28.82
-29.163
-29.448
-29.668
-29.819
-29.897
-29.896
-29.814
-29.648
-29.397
-29.059
-28.635
-28.125
-27.529
-26.849
-26.087
-25.247
-24.33
-23.342
-22.286
-21.167
-19.99
-18.761
-17.485
-16.168
-14.815
-13.432
-12.024
-10.597
-9.155
-7.703
-6.249
-4.796
-3.352
-1.921
-0.509
0.877
2.232
3.551
4.829
6.062
7.246
8.377
9.452
10.47
11.428
12.323
13.156
13.925
14.629
15.268
15.843
16.355
16.805
17.196
17.527
17.802
18.023
18.192
18.309
18.377
18.397
18.371
18.303
18.194
18.048
17.868
17.661
17.431
17.187
16.933
16.675
16.419
16.17
15.933
15.711
15.507
15.323
15.162
15.029
14.931
14.874
14.866
14.913
15.025
15.209
15.471
15.816
16.247
16.762
17.364
18.057
18.845
19.745
20.763
21.898
23.153
24.52
25.98
27.52
29.115
30.71
32.272
33.775
35.198
36.564
37.904
39.206
40.462
41.723
43.031
44.426
45.953
47.578
49.245
51.032
53.077
55.245
57.328
59.493
61.735
63.972
66.696
68.423
67.674
66.371
65.067
67.352
77.561
90.834
103.895
111.906
108.219
98.567
87.838
79.385
78.776
82.051
85.211
87.433
86.38
83.589
80.98
78.291
75.809
73.44
70.85
68.265
65.857
63.582
61.429
59.443
57.636
55.932
54.256
52.473
50.4
47.993
45.16
41.69
37.569
32.906
27.975
23.432
19.9
17.763
17.599
19.932
24.723
31.764
40.156
48.074
54.007
56.651
54.488
46.748
33.85
16.709
-2.24
-18.851
-29.273
-29.38
-14.297
18.112
66.079
127.303
197.545
274.112
361.595
461.546
567.382
666.446
734.509
746.024
691.452
570.981
396.532
196.284
-7.136
-191.848
-334.259
-429.877
-478.547
-484.095
-462.786
-423.592
-375.116
-331.193
-297.884
-279.254
-274.224
-270.667
-258.698
-234.054
-198.462
-161.254
-129.697
-105.983
-89.139
-75.865
-64.558
-55.579
-49.033
-44.522
-41.172
-37.862
-34.108
-29.797
-24.798
-19.116
-13.126
-7.658
-3.426
-0.914
-0.253
-1.214
-3.581
-7.121
-11.422
-15.885
-20.012
-23.456
-26.05
-27.842
-28.871
-29.149
-28.731
-27.705
-26.177
-24.254
-22.022
-19.534
-16.847
-14.04
-11.215
-8.506
-6.022
-3.831
-1.968
-0.438
0.756
1.608
2.13
2.353
2.319
2.073
1.649
1.073
0.376
-0.405
-1.22
-2.012
-2.737
-3.37
-3.89
-4.288
-4.556
-4.684
-4.674
-4.539
-4.291
-3.94
-3.494
-2.957
-2.337
-1.648
-0.906
-0.126
0.677
1.492
2.304
3.1
3.865
4.586
5.252
5.853
6.377
6.812
7.145
7.363
7.456
7.413
7.224
6.881
6.375
5.702
4.857
3.838
2.645
1.279
-0.259
-1.962
-3.826
-5.842
-8
-10.291
-12.702
-15.22
-17.829
-20.516
-23.263
-26.056
-28.877
-31.709
-34.535
-37.337
-40.098
-42.801
-45.429
-47.966
-50.397
-52.706
-54.881
-56.909
-58.778
-60.479
-62.003
-63.342
-64.491
-65.446
-66.203
-66.763
-67.126
-67.295
-67.274
-67.07
-66.689
-66.141
-65.435
-64.583
-63.596
-62.487
-61.27
-59.957
-58.564
-57.104
-55.593
-54.045
-52.475
-50.896
-49.323
-47.768
-46.245
-44.765
-43.338
-41.974
-40.683
-39.472
-38.348
-37.318
-36.386
-35.557
-34.832
-34.214
-33.701
-33.294
-32.989
-32.783
-32.671
-32.648
-32.707
-32.842
-33.045
-33.307
-33.621
-33.977
-34.366
-34.779
-35.206
-35.638
-36.066
-36.481
-36.875
-37.241
-37.571
-37.859
-38.101
-38.29
-38.423
-38.496
-38.505
-38.45
-38.328
-38.137
-37.878
-37.551
-37.158
-36.7
-36.181
-35.602
-34.969
-34.284
-33.553
-32.78
-31.97
-31.128
-30.259
-29.37
-28.465
-27.551
-26.634
-25.718
-24.81
-23.915
-23.037
-22.179
-21.345
-20.539
-19.763
-19.018
-18.307
-17.63
-16.988
-16.382
-15.813
-15.279
-14.781
-14.317
-13.885
-13.485
-13.114
-12.771
-12.454
-12.16
-11.889
-11.638
-11.406
-11.19
-10.99
-10.803
-10.627
-10.461
-10.303
-10.151
-10.004
-9.862
-9.723
-9.588
-9.456
-9.329
-9.208
-9.094
-8.988
-8.892
-8.808
-8.738
-8.685
-8.651
-8.64
-8.653
-8.695
-8.767
-8.874
-9.017
-9.198
-9.419
-9.681
-9.984
-10.329
-10.715
-11.142
-11.608
-12.113
-12.655
-13.231
-13.84
-14.477
-15.14
-15.824
-16.524
-17.234
-17.949
-18.662
-19.365
-20.052
-20.716
-21.348
-21.939
-22.481
-22.965
-23.38
-23.718
-23.97
-24.126
-24.177
-24.115
-23.934
-23.628
-23.193
-22.623
-21.917
-21.075
-20.097
-18.982
-17.735
-16.358
-14.855
-13.232
-11.493
-9.644
-7.694
-5.649
-3.519
-1.316
0.949
3.263
5.613
7.985
10.362
12.728
15.069
17.374
19.633
21.832
23.953
25.977
27.884
29.667
31.318
32.828
34.195
35.418
36.508
37.497
38.413
39.276
40.101
40.887
41.637
42.369
43.102
43.856
44.647
45.466
46.305
47.174
48.063
48.944
49.749
50.357
50.65
50.55
49.998
48.973
47.442
45.333
42.577
39.122
34.923
30.001
24.348
17.859
10.552
2.613
-5.6
-13.427
-20.226
-25.592
-29.073
-30.153
-28.633
-24.583
-18.525
-11.779
-5.634
-0.992
1.203
0.218
-4.037
-11.115
-19.661
-26.874
-29.813
-25.973
-12.498
13.171
52.652
106.892
173.734
247.224
321.645
391.279
455.059
517.278
578.044
634.779
674.076
672.473
614.103
489.7
309.55
104.579
-93.591
-253.515
-360.185
-419.658
-445.693
-458.621
-470.138
-479.766
-482.2
-468.119
-434.934
-386.936
-330.295
-273.033
-220.029
-173.381
-135.085
-105.832
-85.485
-73.706
-68.878
-68.665
-71.007
-73.516
-74.132
-71.897
-66.395
-57.722
-46.727
-34.484
-22.158
-11.278
-2.951
2.404
4.646
4.036
1.108
-3.63
-9.522
-15.741
-21.669
-26.914
-31.223
-34.558
-36.921
-38.28
-38.669
-38.163
-36.823
-34.736
-31.989
-28.648
-24.811
-20.601
-16.148
-11.597
-7.105
-2.796
1.239
4.939
8.273
11.221
13.767
15.91
17.67
19.081
20.183
21.013
21.603
21.996
22.238
22.388
22.506
22.636
22.804
23.028
23.319
23.683
24.126
24.644
25.225
25.857
26.531
27.24
27.984
28.754
29.539
30.329
31.109
31.871
32.607
33.309
33.968
34.576
35.125
35.61
36.028
36.375
36.642
36.825
36.915
36.908
36.798
36.58
36.251
35.806
35.244
34.565
33.77
32.862
31.843
30.719
29.495
28.178
26.775
25.293
23.742
22.132
20.472
18.773
17.048
15.308
13.566
11.835
10.129
8.459
6.84
5.285
3.804
2.41
1.114
-0.074
-1.144
-2.088
-2.897
-3.566
-4.088
-4.459
-4.675
-4.734
-4.637
-4.383
-3.975
-3.417
-2.711
-1.866
-0.885
0.222
1.447
2.782
4.216
5.739
7.339
9.003
10.72
12.476
14.257
16.051
17.844
19.623
21.375
23.089
24.751
26.351
27.879
29.324
30.678
31.933
33.081
34.116
35.034
35.828
36.498
37.04
37.454
37.74
37.899
37.933
37.844
37.638
37.319
36.893
36.365
35.745
35.039
34.257
33.409
32.503
31.55
30.561
29.547
28.518
27.485
26.457
25.446
24.46
23.51
22.603
21.749
20.954
20.226
19.571
18.995
18.502
18.098
17.784
17.564
17.439
17.411
17.479
17.643
17.9
18.249
18.687
19.209
19.81
20.486
21.231
22.037
22.897
23.805
24.752
25.73
26.732
27.747
28.77
29.791
30.803
31.798
32.769
33.709
34.612
35.47
36.279
37.033
37.727
38.357
38.919
39.41
39.827
40.169
40.433
40.619
40.728
40.76
40.716
40.599
40.41
40.155
39.835
39.457
39.025
38.544
38.021
37.46
36.867
36.25
35.613
34.963
34.304
33.643
32.985
32.334
31.696
31.074
30.474
29.899
29.352
28.836
28.354
27.908
27.499
27.129
26.798
26.507
26.254
26.04
25.861
25.717
25.605
25.519
25.458
25.415
25.387
25.366
25.349
25.329
25.3
25.256
25.193
25.103
24.983
24.826
24.628
24.384
24.09
23.742
23.337
22.872
22.345
21.756
21.102
20.386
19.606
18.765
17.865
16.908
15.897
14.836
13.729
12.582
11.401
10.193
8.967
7.73
6.493
5.265
4.056
2.877
1.737
0.649
-0.377
-1.329
-2.198
-2.972
-3.64
-4.193
-4.62
-4.914
-5.066
-5.071
-4.923
-4.619
-4.158
-3.538
-2.761
-1.828
-0.742
0.492
1.87
3.385
5.031
6.8
8.685
10.674
12.756
14.918
17.143
19.419
21.728
24.054
26.378
28.682
30.947
33.16
35.307
37.372
39.337
41.179
42.879
44.428
45.818
47.044
48.101
48.99
49.721
50.319
50.813
51.229
51.583
51.876
52.117
52.313
52.487
52.667
52.859
53.059
53.26
53.45
53.624
53.766
53.818
53.677
53.232
52.384
51.062
49.236
46.876
43.942
40.368
36.089
31.067
25.285
18.768
11.511
3.428
-5.438
-14.85
-24.369
-33.315
-41.037
-47.126
-51.139
-52.522
-51.045
-46.79
-40.341
-33.129
-26.551
-21.547
-19.079
-19.981
-24.445
-32.099
-41.56
-49.819
-53.711
-50.585
-37.473
-11.523
29.283
85.94
156.191
234.128
314.015
391.324
465.267
536.99
602.683
653.903
675.786
652.456
576.91
450.018
283.095
95.184
-94.119
-264.206
-399.507
-493.714
-549.104
-576.839
-587.935
-587.644
-575.436
-545.876
-497.178
-433.148
-360.701
-288.737
-223.366
-167.828
-124.314
-93.267
-74.001
-65.326
-64.981
-70.1
-78.191
-86.511
-92.477
-94.809
-93.149
-87.757
-79.565
-69.708
-59.195
-49.427
-41.879
-37.228
-35.629
-36.846
-40.269
-45.353
-51.638
-58.442
-64.972
-70.723
-75.405
-78.934
-81.423
-82.916
-83.408
-82.961
-81.684
-79.699
-77.136
-74.096
-70.633
-66.832
-62.796
-58.655
-54.576
-50.68
-47.04
-43.704
-40.689
-38.018
-35.713
-33.771
-32.163
-30.848
-29.786
-28.943
-28.297
-27.818
-27.467
-27.195
-26.946
-26.683
-26.387
-26.046
-25.652
-25.202
-24.69
-24.121
-23.512
-22.878
-22.227
-21.565
-20.894
-20.218
-19.548
-18.893
-18.261
-17.658
-17.086
-16.552
-16.058
-15.609
-15.207
-14.852
-14.544
-14.283
-14.072
-13.912
-13.807
-13.759
-13.77
-13.841
-13.974
-14.172
-14.435
-14.761
-15.149
-15.599
-16.107
-16.671
-17.288
-17.954
-18.663
-19.413
-20.197
-21.011
-21.85
-22.707
-23.578
-24.457
-25.339
-26.216
-27.084
-27.936
-28.764
-29.564
-30.329
-31.052
-31.728
-32.349
-32.911
-33.408
-33.835
-34.187
-34.458
-34.644
-34.742
-34.747
-34.657
-34.47
-34.185
-33.8
-33.316
-32.734
-32.054
-31.28
-30.414
-29.457
-28.414
-27.288
-26.083
-24.804
-23.455
-22.044
-20.576
-19.057
-17.494
-15.896
-14.268
-12.62
-10.959
-9.292
-7.628
-5.974
-4.339
-2.731
-1.157
0.375
1.856
3.279
4.639
5.927
7.139
8.269
9.314
10.269
11.131
11.898
12.568
13.14
13.613
13.988
14.264
14.443
14.528
14.521
14.427
14.249
13.993
13.664
13.269
12.812
12.301
11.743
11.144
10.513
9.855
9.18
8.494
7.806
7.122
6.451
5.8
5.175
4.582
4.028
3.518
3.055
2.645
2.291
1.996
1.764
1.596
1.494
1.46
1.493
1.593
1.759
1.989
2.282
2.633
3.039
3.497
4.003
4.551
5.137
5.755
6.402
7.07
7.754
8.449
9.149
9.847
10.539
11.219
11.881
12.522
13.137
13.721
14.272
14.786
15.261
15.693
16.08
16.42
16.712
16.953
17.145
17.285
17.374
17.414
17.405
17.35
17.25
17.109
16.928
16.711
16.461
16.181
15.875
15.547
15.201
14.839
14.467
14.088
13.707
13.325
12.948
12.577
12.215
11.865
11.528
11.206
10.9
10.612
10.343
10.094
9.866
9.659
9.474
9.312
9.17
9.05
8.949
8.865
8.797
8.742
8.699
8.664
8.636
8.612
8.588
8.563
8.534
8.498
8.451
8.391
8.313
8.216
8.097
7.953
7.782
7.582
7.353
7.094
6.804
6.483
6.129
5.743
5.322
4.867
4.377
3.852
3.293
2.699
2.073
1.417
0.733
0.023
-0.709
-1.461
-2.229
-3.011
-3.803
-4.602
-5.404
-6.205
-6.999
-7.782
-8.547
-9.288
-10
-10.674
-11.305
-11.888
-12.417
-12.889
-13.301
-13.649
-13.929
-14.139
-14.272
-14.324
-14.288
-14.155
-13.916
-13.565
-13.097
-12.508
-11.797
-10.963
-10.006
-8.933
-7.747
-6.449
-5.038
-3.506
-1.848
-0.074
1.806
3.776
5.809
7.883
9.97
12.037
14.058
16.02
17.917
19.766
21.583
23.372
25.125
26.823
28.446
29.995
31.471
32.878
34.241
35.589
36.959
38.422
40.025
41.785
43.703
45.745
47.853
50.001
52.174
54.358
56.553
58.737
60.889
63.003
65.049
66.972
68.705
70.136
71.16
71.728
71.802
71.358
70.416
68.96
66.95
64.383
61.236
57.502
53.205
48.33
42.861
36.824
30.262
23.251
15.929
8.354
0.501
-7.481
-15.359
-22.771
-29.107
-33.884
-36.838
-37.54
-35.469
-30.566
-23.05
-13.603
-3.689
5.577
13.584
19.352
21.971
21.399
18.098
13.635
10.981
12.353
19.662
35.793
63.408
104.604
158.68
220.809
285.658
348.59
411.1
480.271
555.436
631.083
691.063
706.218
662.006
553.597
386.841
191.996
-6.316
-186.872
-325.793
-420.689
-474.272
-493.049
-495.947
-491.627
-481.878
-466.343
-437.998
-395.962
-345.122
-290.426
-238.039
-191.104
-150.293
-116.84
-90.799
-71.452
-58.032
-49.24
-43.982
-41.638
-41.056
-40.393
-38.545
-35.203
-30.454
-24.883
-18.956
-12.82
-7.051
-2.721
-0.431
-0.304
-2.176
-5.465
-9.661
-14.496
-19.518
-24.105
-27.846
-30.483
-31.913
-32.265
-31.641
-30.075
-27.678
-24.587
-20.935
-16.89
-12.607
-8.206
-3.837
0.378
4.341
7.945
11.12
13.829
16.042
17.767
19.023
19.825
20.199
20.181
19.805
19.126
18.205
17.099
15.875
14.585
13.27
11.968
10.705
9.495
8.351
7.274
6.259
5.307
4.419
3.595
2.838
2.144
1.51
0.93
0.399
-0.092
-0.547
-0.97
-1.366
-1.737
-2.088
-2.42
-2.736
-3.038
-3.333
-3.627
-3.929
-4.248
-4.591
-4.968
-5.386
-5.855
-6.382
-6.973
-7.632
-8.366
-9.178
-10.071
-11.047
-12.108
-13.255
-14.487
-15.802
-17.198
-18.671
-20.218
-21.832
-23.507
-25.236
-27.01
-28.822
-30.662
-32.521
-34.387
-36.251
-38.101
-39.927
-41.717
-43.459
-45.142
-46.756
-48.287
-49.727
-51.065
-52.291
-53.397
-54.375
-55.217
-55.919
-56.474
-56.879
-57.131
-57.228
-57.168
-56.952
-56.582
-56.058
-55.386
-54.568
-53.61
-52.52
-51.303
-49.969
-48.525
-46.981
-45.348
-43.635
-41.853
-40.015
-38.129
-36.209
-34.266
-32.31
-30.352
-28.405
-26.478
-24.581
-22.725
-20.918
-19.169
-17.487
-15.877
-14.348
-12.904
-11.55
-10.291
-9.129
-8.068
-7.108
-6.25
-5.494
-4.84
-4.284
-3.824
-3.457
-3.179
-2.983
-2.866
-2.82
-2.84
-2.919
-3.05
-3.226
-3.44
-3.687
-3.957
-4.245
-4.544
-4.847
-5.147
-5.439
-5.717
-5.976
-6.209
-6.414
-6.586
-6.721
-6.816
-6.869
-6.877
-6.839
-6.753
-6.618
-6.435
-6.203
-5.923
-5.597
-5.227
-4.815
-4.363
-3.875
-3.353
-2.8
-2.22
-1.617
-0.993
-0.352
0.303
0.967
1.638
2.311
2.983
3.651
4.312
4.962
5.598
6.219
6.822
7.405
7.964
8.5
9.008
9.489
9.94
10.36
10.748
11.103
11.424
11.711
11.964
12.183
12.369
12.52
12.638
12.723
12.775
12.795
12.783
12.74
12.667
12.565
12.435
12.279
12.098
11.892
11.664
11.413
11.143
10.853
10.545
10.221
9.882
9.53
9.167
8.793
8.412
8.024
7.633
7.238
6.843
6.449
6.058
5.672
5.292
4.92
4.559
4.21
3.874
3.552
3.246
2.955
2.68
2.423
2.183
1.96
1.756
1.57
1.402
1.253
1.122
1.008
0.911
0.828
0.759
0.702
0.655
0.616
0.584
0.556
0.531
0.508
0.483
0.454
0.419
0.376
0.324
0.26
0.183
0.093
-0.011
-0.127
-0.252
-0.385
-0.524
-0.666
-0.811
-0.955
-1.099
-1.242
-1.385
-1.526
-1.662
-1.788
-1.896
-1.981
-2.032
-2.04
-1.996
-1.892
-1.719
-1.474
-1.155
-0.758
-0.278
0.294
0.971
1.756
2.652
3.661
4.777
5.988
7.276
8.61
9.956
11.295
12.609
13.895
15.161
16.413
17.658
18.911
20.167
21.427
22.7
23.981
25.278
26.615
28.02
29.548
31.262
33.194
35.362
37.769
40.381
43.165
46.079
49.054
52.059
55.063
58.028
60.937
63.761
66.447
68.946
71.182
73.056
74.516
75.518
76.028
76.064
75.636
74.766
73.515
71.889
69.881
67.499
64.719
61.532
57.953
53.979
49.611
44.883
39.812
34.439
28.811
22.934
16.835
10.514
3.992
-2.6
-9.161
-15.622
-21.813
-27.539
-32.477
-36.052
-37.828
-37.55
-34.833
-29.415
-21.295
-10.575
2.029
15.167
27.898
39.638
49.352
56.287
60.555
62.26
63.92
70.991
85.487
107.629
136.296
163.601
187.088
212.224
243.612
293.846
372.549
472.079
580.176
674.388
721.913
704.29
613.463
451.464
245.837
28.774
-170.352
-321.416
-417.449
-467.016
-484.033
-491.304
-499.188
-505.996
-506.242
-489.103
-451.917
-399.528
-337.779
-274.725
-215.016
-160.386
-113.557
-76.099
-48.3
-30.336
-21.146
-18.616
-21.159
-26.721
-32.349
-36.157
-37.205
-34.944
-29.787
-22.622
-14.105
-5.38
1.924
6.93
9.282
8.92
6.36
2.165
-3.215
-9.092
-14.647
-19.374
-22.992
-25.384
-26.667
-26.92
-26.168
-24.528
-22.157
-19.194
-15.779
-12.034
-8.053
-3.96
0.086
3.956
7.532
10.729
13.508
15.843
17.724
19.152
20.142
20.716
20.911
20.768
20.326
19.633
18.743
17.714
16.613
15.495
14.4
13.358
12.386
11.492
10.682
9.956
9.307
8.73
8.218
7.767
7.377
7.043
6.757
6.511
6.293
6.093
5.903
5.718
5.531
5.337
5.129
4.906
4.663
4.396
4.1
3.766
3.386
2.953
2.458
1.896
1.258
0.54
-0.263
-1.155
-2.136
-3.209
-4.374
-5.629
-6.975
-8.41
-9.929
-11.53
-13.208
-14.957
-16.771
-18.643
-20.565
-22.527
-24.522
-26.54
-28.571
-30.605
-32.632
-34.641
-36.622
-38.563
-40.453
-42.282
-44.038
-45.709
-47.286
-48.759
-50.118
-51.354
-52.46
-53.428
-54.254
-54.932
-55.458
-55.829
-56.044
-56.1
-55.999
-55.741
-55.327
-54.762
-54.049
-53.193
-52.199
-51.075
-49.827
-48.463
-46.992
-45.422
-43.764
-42.026
-40.219
-38.355
-36.445
-34.499
-32.531
-30.55
-28.57
-26.603
-24.658
-22.748
-20.883
-19.073
-17.328
-15.657
-14.068
-12.569
-11.166
-9.864
-8.669
-7.583
-6.611
-5.753
-5.01
-4.382
-3.868
-3.466
-3.172
-2.984
-2.896
-2.904
-3.001
-3.181
-3.436
-3.759
-4.143
-4.577
-5.054
-5.564
-6.098
-6.646
-7.198
-7.746
-8.278
-8.787
-9.263
-9.699
-10.085
-10.416
-10.683
-10.882
-11.008
-11.055
-11.021
-10.902
-10.697
-10.405
-10.027
-9.562
-9.012
-8.381
-7.671
-6.886
-6.03
-5.109
-4.127
-3.091
-2.007
-0.881
0.28
1.469
2.679
3.901
5.129
6.355
7.571
8.77
9.944
11.088
12.194
13.255
14.268
15.224
16.121
16.952
17.715
18.406
19.022
19.561
20.023
20.406
20.711
20.939
21.091
21.168
21.174
21.109
20.977
20.781
20.523
20.207
19.837
19.415
18.945
18.432
17.879
17.289
16.666
16.014
15.335
14.633
13.911
13.172
12.418
11.654
10.88
10.102
9.319
8.536
7.752
6.969
6.188
5.409
4.631
3.854
3.077
2.3
1.521
0.74
-0.045
-0.835
-1.63
-2.432
-3.241
-4.058
-4.884
-5.718
-6.56
-7.41
-8.265
-9.125
-9.988
-10.851
-11.711
-12.566
-13.414
-14.25
-15.072
-15.878
-16.662
-17.421
-18.151
-18.847
-19.504
-20.115
-20.675
-21.177
-21.615
-21.983
-22.273
-22.481
-22.597
-22.617
-22.534
-22.342
-22.036
-21.61
-21.062
-20.386
-19.581
-18.646
-17.58
-16.384
-15.059
-13.608
-12.036
-10.35
-8.555
-6.658
-4.668
-2.592
-0.441
1.778
4.055
6.382
8.75
11.15
13.568
15.99
18.404
20.797
23.155
25.465
27.713
29.887
31.981
33.987
35.898
37.7
39.375
40.905
42.279
43.489
44.528
45.4
46.11
46.675
47.127
47.492
47.799
48.072
48.319
48.555
48.801
49.077
49.422
49.87
50.438
51.14
51.986
52.953
53.991
55.034
55.967
56.691
57.129
57.18
56.759
55.774
54.12
51.723
48.514
44.38
39.214
32.999
25.825
17.975
9.891
1.951
-5.489
-12.017
-17.195
-20.668
-22.393
-22.76
-22.531
-22.34
-22.475
-23.19
-24.699
-27.138
-30.585
-34.177
-35.97
-34.567
-27.338
-11.577
12.339
45.876
87.205
130.524
176.414
224.261
275.733
340.181
419.695
509.886
602.876
677.896
709.752
683.58
590.625
438.13
254.628
67.585
-96.671
-220.362
-307.508
-367.665
-413.414
-456.181
-495.26
-525.398
-539.792
-532.662
-504.589
-460.241
-405.561
-345.682
-284.027
-222.398
-162.478
-107.236
-59.533
-21.443
5.953
23.086
31.119
30.992
24.218
13.164
0.368
-11.537
-20.785
-26.874
-29.779
-29.666
-27.092
-22.911
-18.267
-14.527
-12.426
-12.016
-13.146
-15.438
-18.444
-21.778
-24.889
-27.149
-28.254
-28.137
-26.858
-24.634
-21.642
-18.006
-13.933
-9.648
-5.338
-1.171
2.762
6.422
9.74
12.658
15.136
17.136
18.665
19.75
20.405
20.66
20.553
20.119
19.413
18.493
17.416
16.249
15.041
13.828
12.644
11.515
10.457
9.489
8.615
7.829
7.133
6.525
6.004
5.573
5.227
4.96
4.766
4.636
4.562
4.537
4.556
4.612
4.7
4.814
4.95
5.105
5.272
5.444
5.613
5.767
5.897
5.993
6.045
6.04
5.97
5.825
5.597
5.278
4.862
4.344
3.717
2.979
2.125
1.156
0.069
-1.132
-2.447
-3.872
-5.401
-7.03
-8.749
-10.551
-12.428
-14.368
-16.362
-18.398
-20.465
-22.549
-24.639
-26.722
-28.783
-30.81
-32.789
-34.706
-36.549
-38.304
-39.959
-41.503
-42.923
-44.211
-45.356
-46.352
-47.189
-47.863
-48.368
-48.702
-48.861
-48.846
-48.656
-48.294
-47.764
-47.069
-46.215
-45.21
-44.06
-42.776
-41.366
-39.841
-38.212
-36.49
-34.687
-32.815
-30.888
-28.917
-26.916
-24.897
-22.872
-20.855
-18.858
-16.891
-14.968
-13.097
-11.291
-9.557
-7.906
-6.343
-4.877
-3.513
-2.255
-1.106
-0.069
0.855
1.667
2.367
2.958
3.443
3.826
4.112
4.307
4.416
4.447
4.407
4.304
4.147
3.942
3.699
3.427
3.133
2.826
2.515
2.208
1.913
1.638
1.391
1.179
1.007
0.883
0.812
0.798
0.846
0.957
1.135
1.38
1.694
2.076
2.525
3.04
3.618
4.256
4.951
5.7
6.497
7.338
8.219
9.134
10.078
11.046
12.033
13.032
14.04
15.049
16.054
17.051
18.033
18.995
19.932
20.839
21.711
22.544
23.334
24.076
24.769
25.409
25.994
26.522
26.994
27.406
27.761
28.057
28.295
28.477
28.602
28.673
28.689
28.654
28.568
28.433
28.249
28.02
27.747
27.43
27.073
26.678
26.245
25.778
25.28
24.752
24.198
23.622
23.026
22.413
21.787
21.152
20.51
19.865
19.22
18.576
17.938
17.307
16.686
16.077
15.482
14.904
14.344
13.806
13.291
12.801
12.339
11.906
11.506
11.14
10.809
10.517
10.264
10.053
9.884
9.758
9.675
9.634
9.635
9.677
9.755
9.869
10.015
10.19
10.389
10.608
10.844
11.092
11.347
11.604
11.859
12.107
12.342
12.56
12.756
12.924
13.061
13.161
13.221
13.237
13.204
13.12
12.981
12.785
12.53
12.215
11.838
11.399
10.9
10.342
9.728
9.062
8.349
7.595
6.808
5.994
5.162
4.323
3.484
2.657
1.852
1.08
0.354
-0.316
-0.918
-1.44
-1.872
-2.202
-2.421
-2.52
-2.489
-2.322
-2.013
-1.555
-0.947
-0.186
0.731
1.803
3.031
4.412
5.943
7.62
9.438
11.391
13.469
15.662
17.956
20.338
22.792
25.304
27.857
30.433
33.011
35.574
38.105
40.587
43.004
45.332
47.546
49.626
51.558
53.336
54.953
56.408
57.698
58.83
59.826
60.708
61.498
62.212
62.853
63.431
63.962
64.472
64.995
65.549
66.132
66.738
67.355
67.966
68.553
69.057
69.383
69.439
69.123
68.359
67.09
65.249
62.786
59.633
55.714
50.985
45.414
39.002
31.827
23.923
15.273
6.042
-3.503
-12.954
-21.627
-29.008
-34.822
-38.572
-39.732
-38.101
-33.6
-26.772
-19.032
-11.36
-4.184
1.454
4.52
4.939
2.667
0.155
2.914
13.199
31.386
56.432
83.421
112.751
149.286
197.97
265.497
352.79
454.737
559.998
651.169
709.337
715.033
660.654
551.634
403.841
243.274
88.174
-52.72
-176.664
-287.465
-384.168
-461.876
-516.662
-544.998
-547.305
-526.931
-488.019
-436.194
-377.173
-315.976
-256.77
-202.286
-154.744
-116.475
-88.432
-70.024
-59.838
-55.737
-55.851
-58.967
-63.346
-66.625
-67.364
-65.057
-59.835
-52.594
-44.129
-34.907
-25.871
-18.362
-13.188
-10.664
-10.701
-12.703
-16.106
-20.499
-25.305
-29.834
-33.626
-36.409
-38.074
-38.722
-38.442
-37.272
-35.308
-32.676
-29.485
-25.846
-21.873
-17.655
-13.328
-9.053
-4.958
-1.156
2.267
5.265
7.803
9.861
11.445
12.576
13.273
13.567
13.488
13.065
12.343
11.373
10.215
8.935
7.588
6.218
4.86
3.538
2.267
1.06
-0.078
-1.153
-2.163
-3.11
-3.991
-4.801
-5.54
-6.212
-6.821
-7.373
-7.875
-8.33
-8.744
-9.12
-9.464
-9.779
-10.068
-10.334
-10.58
-10.815
-11.045
-11.281
-11.533
-11.809
-12.12
-12.477
-12.89
-13.369
-13.92
-14.55
-15.267
-16.076
-16.98
-17.985
-19.092
-20.302
-21.615
-23.031
-24.547
-26.161
-27.868
-29.662
-31.537
-33.486
-35.502
-37.575
-39.696
-41.855
-44.04
-46.242
-48.449
-50.647
-52.824
-54.967
-57.063
-59.099
-61.06
-62.934
-64.708
-66.37
-67.909
-69.314
-70.575
-71.685
-72.636
-73.421
-74.036
-74.476
-74.739
-74.824
-74.73
-74.458
-74.009
-73.388
-72.598
-71.645
-70.534
-69.272
-67.866
-66.326
-64.659
-62.877
-60.988
-59.005
-56.939
-54.801
-52.604
-50.36
-48.083
-45.785
-43.48
-41.178
-38.894
-36.637
-34.42
-32.252
-30.143
-28.102
-26.137
-24.254
-22.461
-20.761
-19.16
-17.661
-16.266
-14.976
-13.793
-12.715
-11.743
-10.874
-10.106
-9.437
-8.862
-8.377
-7.977
-7.658
-7.413
-7.235
-7.118
-7.055
-7.038
-7.06
-7.112
-7.186
-7.276
-7.373
-7.471
-7.562
-7.641
-7.702
-7.738
-7.746
-7.72
-7.657
-7.552
-7.404
-7.21
-6.968
-6.677
-6.335
-5.944
-5.503
-5.013
-4.473
-3.887
-3.255
-2.58
-1.863
-1.108
-0.318
0.504
1.352
2.224
3.115
4.019
4.933
5.851
6.77
7.683
8.588
9.48
10.354
11.207
12.035
12.833
13.6
14.331
15.024
15.675
16.284
16.847
17.362
17.829
18.246
18.611
18.923
19.181
19.385
19.534
19.627
19.666
19.649
19.579
19.457
19.284
19.061
18.79
18.474
18.115
17.714
17.275
16.8
16.292
15.753
15.186
14.594
13.981
13.348
12.7
12.038
11.366
10.686
10.001
9.313
8.626
7.941
7.262
6.592
5.934
5.289
4.661
4.052
3.465
2.9
2.362
1.85
1.367
0.914
0.492
0.103
-0.253
-0.576
-0.864
-1.117
-1.336
-1.52
-1.67
-1.786
-1.869
-1.919
-1.937
-1.923
-1.88
-1.806
-1.703
-1.573
-1.416
-1.234
-1.029
-0.802
-0.555
-0.291
-0.012
0.281
0.584
0.895
1.212
1.532
1.852
2.169
2.481
2.784
3.076
3.354
3.615
3.857
4.078
4.275
4.447
4.591
4.705
4.786
4.834
4.846
4.82
4.755
4.648
4.499
4.306
4.068
3.785
3.456
3.081
2.661
2.195
1.687
1.137
0.547
-0.079
-0.738
-1.425
-2.137
-2.868
-3.612
-4.366
-5.122
-5.874
-6.617
-7.344
-8.048
-8.722
-9.36
-9.954
-10.496
-10.979
-11.395
-11.737
-11.997
-12.166
-12.236
-12.202
-12.054
-11.787
-11.393
-10.867
-10.203
-9.397
-8.447
-7.35
-6.106
-4.717
-3.186
-1.516
0.287
2.218
4.268
6.431
8.697
11.06
13.51
16.036
18.628
21.273
23.958
26.669
29.391
32.11
34.808
37.467
40.074
42.616
45.078
47.45
49.712
51.842
53.825
55.648
57.3
58.778
60.076
61.193
62.143
62.951
63.649
64.264
64.816
65.315
65.773
66.206
66.638
67.102
67.61
68.168
68.774
69.419
70.098
70.787
71.422
71.893
72.082
71.875
71.191
69.98
68.187
65.756
62.601
58.648
53.855
48.187
41.666
34.282
25.956
16.782
7.037
-2.848
-12.224
-20.505
-27.378
-32.382
-34.912
-34.822
-32.174
-27.437
-21.871
-16.38
-11.381
-7.669
-6.011
-6.381
-8.472
-11.087
-11.52
-7.668
1.979
19.808
48.29
88.962
142.662
206.972
275.62
343.257
406.565
467.299
529.882
594.072
652.547
684.082
664.922
582.666
437.446
254.506
69.291
-93.509
-216.818
-303.887
-370.343
-423.747
-469.701
-505.818
-522.438
-516.779
-489.304
-444.033
-389.472
-331.771
-275.211
-223.167
-177.445
-139.658
-110.754
-90.309
-77.258
-69.876
-66.126
-64.265
-62.349
-58.778
-52.919
-44.669
-34.372
-22.885
-11.114
0.02
9.269
15.751
19.197
19.603
17.317
12.905
6.881
-0.146
-7.391
-14.233
-20.29
-25.313
-29.25
-32.112
-33.865
-34.533
-34.2
-32.95
-30.884
-28.114
-24.727
-20.825
-16.558
-12.071
-7.532
-3.12
1.037
4.85
8.254
11.219
13.726
15.759
17.327
18.464
19.207
19.599
19.682
19.49
19.069
18.477
17.774
17.026
16.279
15.56
14.89
14.283
13.745
13.283
12.893
12.562
12.28
12.041
11.841
11.679
11.549
11.441
11.344
11.247
11.142
11.02
10.876
10.7
10.485
10.226
9.918
9.557
9.138
8.654
8.098
7.461
6.736
5.917
4.996
3.967
2.824
1.563
0.182
-1.32
-2.945
-4.691
-6.559
-8.545
-10.646
-12.858
-15.175
-17.592
-20.101
-22.692
-25.355
-28.081
-30.856
-33.669
-36.506
-39.354
-42.197
-45.022
-47.815
-50.561
-53.245
-55.853
-58.372
-60.786
-63.083
-65.25
-67.274
-69.145
-70.85
-72.381
-73.729
-74.887
-75.849
-76.609
-77.162
-77.508
-77.642
-77.566
-77.28
-76.786
-76.088
-75.19
-74.099
-72.823
-71.369
-69.749
-67.972
-66.05
-63.996
-61.821
-59.538
-57.162
-54.705
-52.182
-49.606
-46.991
-44.351
-41.699
-39.049
-36.413
-33.804
-31.234
-28.713
-26.254
-23.864
-21.555
-19.333
-17.207
-15.182
-13.265
-11.459
-9.769
-8.195
-6.739
-5.402
-4.18
-3.073
-2.077
-1.187
-0.399
0.292
0.894
1.412
1.852
2.223
2.532
2.785
2.992
3.159
3.294
3.406
3.501
3.587
3.671
3.76
3.86
3.977
4.117
4.285
4.484
4.72
4.995
5.311
5.671
6.075
6.523
7.015
7.549
8.124
8.737
9.384
10.063
10.77
11.501
12.252
13.018
13.796
14.581
15.369
16.155
16.936
17.706
18.461
19.198
19.911
20.598
21.255
21.877
22.463
23.01
23.514
23.974
24.388
24.756
25.075
25.347
25.57
25.746
25.876
25.961
26.003
26.004
25.967
25.893
25.785
25.646
25.476
25.279
25.056
24.81
24.541
24.252
23.945
23.621
23.282
22.93
22.567
22.195
21.814
21.426
21.033
20.636
20.235
19.833
19.429
19.025
18.621
18.218
17.816
17.414
17.013
16.613
16.212
15.812
15.411
15.009
14.608
14.207
13.807
13.409
13.015
12.626
12.243
11.868
11.501
11.146
10.802
10.471
10.156
9.856
9.575
9.312
9.069
8.847
8.647
8.471
8.318
8.189
8.086
8.009
7.958
7.934
7.937
7.969
8.03
8.119
8.237
8.383
8.556
8.754
8.976
9.221
9.485
9.767
10.065
10.374
10.694
11.021
11.352
11.686
12.019
12.348
12.67
12.983
13.285
13.572
13.843
14.095
14.325
14.532
14.713
14.865
14.987
15.075
15.127
15.141
15.115
15.046
14.932
14.773
14.567
14.313
14.012
13.663
13.267
12.823
12.334
11.8
11.222
10.602
9.942
9.244
8.512
7.747
6.955
6.137
5.298
4.44
3.57
2.69
1.807
0.925
0.05
-0.811
-1.652
-2.465
-3.242
-3.975
-4.656
-5.278
-5.831
-6.307
-6.699
-7
-7.201
-7.297
-7.28
-7.144
-6.885
-6.497
-5.977
-5.322
-4.53
-3.601
-2.535
-1.334
-0.001
1.46
3.045
4.749
6.564
8.486
10.507
12.619
14.815
17.085
19.416
21.797
24.212
26.648
29.089
31.52
33.925
36.29
38.608
40.868
43.058
45.166
47.173
49.061
50.82
52.439
53.907
55.22
56.376
57.388
58.284
59.084
59.805
60.462
61.055
61.588
62.08
62.545
63.007
63.487
63.991
64.527
65.116
65.758
66.424
67.046
67.518
67.742
67.654
67.217
66.384
65.09
63.242
60.749
57.54
53.576
48.81
43.115
36.445
28.912
20.816
12.744
5.299
-1.103
-6.036
-8.987
-9.716
-8.28
-5.177
-1.688
0.935
1.905
0.427
-4.175
-11.966
-22.421
-34.089
-44.035
-49.211
-47.186
-35.179
-10.472
28.815
83.873
152.404
227.79
303.914
375.248
442.182
511.766
585.435
659.112
715.312
723.425
662.591
526.29
331.044
117.649
-74.292
-218.35
-307.487
-356.74
-387.66
-414.727
-442.962
-467.652
-479.121
-472.316
-448.109
-410.92
-367.904
-324.189
-281.203
-239.155
-198.029
-158.63
-122.881
-92.509
-67.901
-48.598
-34.509
-25.676
-21.85
-22.335
-25.311
-28.588
-31.033
-32.283
-32.12
-30.542
-27.603
-23.5
-19.167
-15.833
-14.089
-14.041
-15.507
-18.055
-21.355
-25.122
-28.836
-31.901
-33.959
-34.852
-34.601
-33.373
-31.284
-28.427
-24.945
-20.999
-16.755
-12.364
-7.952
-3.629
0.501
4.34
7.806
10.84
13.411
15.508
17.138
18.322
19.087
19.469
19.503
19.219
18.663
17.882
16.929
15.865
14.74
13.588
12.442
11.325
10.254
9.239
8.284
7.382
6.532
5.731
4.981
4.285
3.643
3.051
2.506
2.001
1.531
1.093
0.683
0.296
-0.071
-0.424
-0.765
-1.096
-1.421
-1.747
-2.081
-2.432
-2.809
-3.219
-3.671
-4.174
-4.737
-5.366
-6.069
-6.85
-7.714
-8.666
-9.71
-10.847
-12.08
-13.41
-14.837
-16.36
-17.978
-19.688
-21.486
-23.368
-25.328
-27.36
-29.458
-31.612
-33.815
-36.057
-38.327
-40.616
-42.911
-45.201
-47.473
-49.715
-51.916
-54.061
-56.139
-58.138
-60.046
-61.852
-63.545
-65.116
-66.555
-67.855
-69.007
-70.006
-70.846
-71.523
-72.032
-72.372
-72.541
-72.538
-72.365
-72.021
-71.51
-70.836
-70.001
-69.012
-67.875
-66.595
-65.182
-63.643
-61.989
-60.227
-58.37
-56.428
-54.412
-52.333
-50.203
-48.035
-45.839
-43.627
-41.411
-39.203
-37.012
-34.851
-32.728
-30.653
-28.634
-26.68
-24.798
-22.993
-21.272
-19.638
-18.097
-16.651
-15.303
-14.054
-12.906
-11.858
-10.91
-10.06
-9.307
-8.648
-8.08
-7.598
-7.198
-6.875
-6.623
-6.438
-6.312
-6.239
-6.212
-6.226
-6.271
-6.342
-6.431
-6.531
-6.637
-6.741
-6.838
-6.922
-6.989
-7.033
-7.052
-7.041
-6.996
-6.917
-6.799
-6.643
-6.445
-6.206
-5.924
-5.6
-5.235
-4.828
-4.381
-3.896
-3.375
-2.819
-2.232
-1.617
-0.978
-0.317
0.361
1.052
1.751
2.454
3.156
3.852
4.537
5.208
5.859
6.487
7.088
7.658
8.193
8.692
9.15
9.567
9.938
10.263
10.54
10.768
10.944
11.069
11.142
11.161
11.128
11.042
10.905
10.717
10.48
10.196
9.868
9.497
9.087
8.642
8.166
7.662
7.135
6.59
6.031
5.463
4.892
4.322
3.757
3.202
2.662
2.14
1.641
1.168
0.725
0.314
-0.061
-0.398
-0.693
-0.946
-1.154
-1.315
-1.428
-1.492
-1.509
-1.477
-1.398
-1.274
-1.106
-0.898
-0.653
-0.373
-0.064
0.27
0.624
0.993
1.371
1.751
2.129
2.497
2.85
3.181
3.486
3.759
3.995
4.191
4.342
4.445
4.497
4.497
4.441
4.33
4.162
3.936
3.654
3.317
2.926
2.486
2
1.472
0.908
0.315
-0.3
-0.929
-1.564
-2.197
-2.816
-3.412
-3.974
-4.49
-4.949
-5.34
-5.651
-5.872
-5.992
-6.002
-5.894
-5.659
-5.293
-4.79
-4.147
-3.361
-2.431
-1.357
-0.141
1.216
2.712
4.341
6.1
7.984
9.985
12.096
14.306
16.603
18.976
21.411
23.89
26.399
28.919
31.434
33.932
36.399
38.82
41.176
43.444
45.605
47.643
49.548
51.308
52.915
54.366
55.672
56.858
57.953
58.979
59.951
60.872
61.749
62.589
63.413
64.243
65.086
65.943
66.809
67.68
68.55
69.397
70.147
70.676
70.867
70.606
69.824
68.485
66.528
63.878
60.455
56.177
51.007
44.955
37.998
30.053
21.128
11.37
1.158
-8.848
-18.024
-25.92
-32.095
-36.05
-37.475
-36.356
-33.152
-29.07
-25.329
-22.682
-21.803
-23.271
-27.219
-33.341
-40.498
-46.056
-47.215
-41.96
-28.03
-3.278
33.904
85.147
148.923
219.22
290.6
358.554
423.36
491.522
563.376
632.011
681.285
686.996
634.843
523.488
365.666
185.495
5.832
-154.88
-286.332
-384.061
-449.214
-489.106
-509.402
-516.486
-513.005
-495.254
-463.131
-418.324
-364.517
-308.962
-255.809
-206.359
-161.945
-123.228
-90.778
-65.496
-47.13
-34.521
-27.126
-24.674
-26.299
-30.683
-36.188
-40.982
-44.163
-45.696
-45.434
-43.306
-39.579
-34.766
-29.804
-25.848
-23.423
-22.484
-22.868
-24.279
-26.422
-29.014
-31.58
-33.542
-34.582
-34.626
-33.722
-32.034
-29.686
-26.74
-23.319
-19.591
-15.709
-11.813
-8.023
-4.39
-0.971
2.159
4.946
7.345
9.33
10.915
12.126
12.983
13.512
13.741
13.696
13.421
12.962
12.371
11.701
10.995
10.284
9.599
8.962
8.391
7.897
7.482
7.137
6.858
6.643
6.488
6.394
6.356
6.365
6.415
6.498
6.603
6.725
6.856
6.988
7.116
7.232
7.33
7.409
7.461
7.481
7.46
7.39
7.262
7.067
6.798
6.445
6.002
5.462
4.82
4.071
3.214
2.245
1.165
-0.027
-1.328
-2.737
-4.249
-5.861
-7.566
-9.359
-11.232
-13.178
-15.187
-17.251
-19.359
-21.501
-23.667
-25.846
-28.026
-30.197
-32.346
-34.463
-36.536
-38.554
-40.505
-42.378
-44.163
-45.848
-47.423
-48.88
-50.209
-51.404
-52.456
-53.363
-54.118
-54.718
-55.163
-55.449
-55.579
-55.551
-55.369
-55.035
-54.552
-53.925
-53.16
-52.263
-51.24
-50.1
-48.849
-47.497
-46.051
-44.522
-42.917
-41.247
-39.52
-37.746
-35.934
-34.096
-32.24
-30.377
-28.516
-26.668
-24.841
-23.044
-21.286
-19.574
-17.915
-16.315
-14.78
-13.314
-11.921
-10.605
-9.367
-8.211
-7.136
-6.143
-5.231
-4.398
-3.643
-2.962
-2.351
-1.808
-1.328
-0.907
-0.54
-0.223
0.05
0.283
0.482
0.652
0.799
0.93
1.05
1.165
1.282
1.405
1.541
1.694
1.87
2.072
2.304
2.57
2.873
3.215
3.599
4.026
4.496
5.011
5.57
6.171
6.814
7.495
8.213
8.964
9.746
10.556
11.389
12.244
13.116
14.001
14.897
15.8
16.704
17.607
18.503
19.389
20.26
21.113
21.943
22.748
23.523
24.267
24.975
25.646
26.277
26.865
27.409
27.906
28.357
28.76
29.114
29.421
29.681
29.896
30.066
30.193
30.279
30.326
30.335
30.308
30.247
30.154
30.032
29.882
29.706
29.508
29.29
29.054
28.802
28.537
28.259
27.972
27.677
27.374
27.067
26.756
26.442
26.127
25.812
25.498
25.186
24.875
24.566
24.257
23.949
23.639
23.328
23.012
22.692
22.366
22.031
21.688
21.333
20.965
20.583
20.184
19.766
19.328
18.868
18.385
17.877
17.344
16.785
16.201
15.59
14.954
14.292
13.606
12.898
12.168
11.42
10.654
9.876
9.087
8.292
7.497
6.706
5.924
5.158
4.413
3.697
3.016
2.378
1.79
1.26
0.796
0.407
0.1
-0.117
-0.236
-0.25
-0.152
0.065
0.406
0.875
1.478
2.216
3.092
4.108
5.262
6.553
7.977
9.531
11.209
13.005
14.912
16.921
19.025
21.215
23.48
25.81
28.191
30.609
33.052
35.504
37.95
40.373
42.756
45.082
47.34
49.517
51.6
53.572
55.411
57.1
58.632
59.999
61.192
62.206
63.039
63.701
64.22
64.621
64.925
65.153
65.311
65.414
65.491
65.572
65.684
65.853
66.075
66.346
66.68
67.068
67.484
67.87
68.105
68.073
67.684
66.857
65.538
63.661
61.113
57.789
53.617
48.566
42.698
36.035
28.474
20.013
10.806
1.217
-8.153
-16.804
-24.463
-30.71
-34.903
-36.548
-35.44
-32.025
-27.34
-22.1
-16.917
-12.921
-11.384
-13.327
-17.367
-19.322
-15.584
-4.588
9.687
20.496
27.826
37.152
60.527
112.925
197.032
307.969
436.939
565.465
679.509
764.596
797.719
767.453
668.343
505.817
309.256
108.22
-68.875
-201.101
-290.937
-348.554
-389.352
-428.027
-465.627
-497.065
-514.135
-509.666
-484.086
-442.808
-392.672
-338.818
-284.396
-231.401
-181.351
-137.008
-101.196
-73.18
-51.312
-36.623
-27.951
-27.167
-38.526
-55.793
-71.907
-80.458
-70.295
-43.499
-11.304
18.583
34.062
30.966
19
4.079
-7.588
-11.064
-11.915
-13.537
-16.385
-22.136
-28.403
-33.2
-36.985
-39.514
-40.927
-41.643
-41.487
-40.355
-38.434
-35.839
-32.607
-28.869
-24.791
-20.53
-16.304
-12.314
-8.64
-5.339
-2.458
-0.009
1.987
3.522
4.627
5.334
5.681
5.708
5.451
4.955
4.279
3.487
2.65
1.827
1.053
0.351
-0.265
-0.787
-1.209
-1.532
-1.769
-1.928
-2.018
-2.043
-2.004
-1.905
-1.757
-1.573
-1.365
-1.144
-0.92
-0.7
-0.493
-0.309
-0.153
-0.033
0.05
0.088
0.074
-0.001
-0.145
-0.369
-0.679
-1.083
-1.589
-2.204
-2.933
-3.78
-4.745
-5.83
-7.036
-8.362
-9.806
-11.366
-13.037
-14.816
-16.698
-18.675
-20.741
-22.887
-25.102
-27.378
-29.702
-32.064
-34.449
-36.846
-39.242
-41.622
-43.974
-46.285
-48.541
-50.73
-52.837
-54.851
-56.76
-58.553
-60.218
-61.747
-63.129
-64.359
-65.429
-66.335
-67.07
-67.633
-68.021
-68.233
-68.267
-68.125
-67.808
-67.319
-66.66
-65.837
-64.856
-63.724
-62.447
-61.036
-59.499
-57.846
-56.088
-54.236
-52.301
-50.296
-48.231
-46.12
-43.974
-41.804
-39.624
-37.445
-35.277
-33.131
-31.017
-28.946
-26.925
-24.962
-23.066
-21.243
-19.5
-17.841
-16.271
-14.796
-13.417
-12.137
-10.958
-9.881
-8.904
-8.028
-7.249
-6.565
-5.971
-5.464
-5.037
-4.686
-4.403
-4.183
-4.017
-3.899
-3.821
-3.775
-3.753
-3.748
-3.753
-3.76
-3.762
-3.755
-3.731
-3.686
-3.615
-3.514
-3.379
-3.207
-2.995
-2.74
-2.442
-2.098
-1.709
-1.276
-0.799
-0.28
0.278
0.873
1.5
2.155
2.834
3.531
4.24
4.956
5.672
6.382
7.078
7.755
8.405
9.023
9.603
10.138
10.626
11.06
11.438
11.756
12.012
12.204
12.33
12.39
12.383
12.31
12.172
11.97
11.708
11.387
11.012
10.585
10.113
9.6
9.051
8.473
7.872
7.254
6.627
5.997
5.373
4.761
4.17
3.607
3.077
2.589
2.149
1.76
1.429
1.159
0.954
0.816
0.747
0.747
0.818
0.959
1.167
1.442
1.78
2.177
2.63
3.134
3.684
4.272
4.894
5.542
6.21
6.889
7.571
8.249
8.914
9.557
10.169
10.742
11.267
11.736
12.14
12.473
12.728
12.898
12.978
12.965
12.854
12.643
12.331
11.919
11.406
10.795
10.09
9.294
8.415
7.456
6.426
5.332
4.184
2.989
1.76
0.505
-0.763
-2.034
-3.294
-4.53
-5.73
-6.881
-7.968
-8.978
-9.897
-10.712
-11.41
-11.978
-12.405
-12.679
-12.79
-12.728
-12.487
-12.06
-11.444
-10.635
-9.633
-8.44
-7.06
-5.497
-3.758
-1.85
0.218
2.436
4.792
7.277
9.878
12.581
15.372
18.233
21.146
24.097
27.065
30.033
32.98
35.883
38.725
41.491
44.166
46.734
49.176
51.465
53.585
55.526
57.284
58.852
60.227
61.409
62.409
63.258
63.987
64.625
65.19
65.686
66.124
66.526
66.92
67.336
67.788
68.271
68.774
69.3
69.844
70.38
70.853
71.154
71.158
70.77
69.912
68.535
66.615
64.095
60.884
56.937
52.237
46.817
40.774
34.086
26.635
18.508
9.977
1.488
-6.312
-12.973
-18.225
-21.509
-22.145
-19.91
-14.944
-7.924
-0.003
7.905
14.814
19.217
19.68
17.222
15.049
16.247
22.733
30.81
33.977
32.118
31.916
46.691
91.296
169.929
275.943
398.019
522.733
637.647
732.185
791.03
795.728
736.453
611.566
433.403
229.6
26.47
-150.754
-285.078
-375.944
-429.292
-458.665
-477.206
-488.806
-492.351
-481.733
-453.329
-410.245
-358.641
-306.122
-257.329
-213.417
-174.907
-142.342
-116.289
-96.71
-82.486
-72.144
-64.855
-60.147
-57.32
-55.01
-51.63
-46.423
-39.493
-31.342
-22.36
-12.746
-2.78
6.745
14.686
20.392
23.759
24.994
24.485
22.51
19.248
15.106
10.718
6.551
2.902
-0.061
-2.375
-4.052
-5.041
-5.371
-5.118
-4.355
-3.176
-1.658
0.167
2.253
4.546
6.996
9.509
11.994
14.366
16.527
18.422
20.016
21.281
22.211
22.818
23.117
23.144
22.941
22.542
21.974
21.261
20.421
19.485
18.488
17.465
16.46
15.5
14.606
13.794
13.074
12.446
11.91
11.457
11.072
10.743
10.462
10.221
10.014
9.836
9.675
9.52
9.359
9.18
8.971
8.722
8.421
8.058
7.626
7.115
6.524
5.844
5.071
4.198
3.218
2.127
0.92
-0.406
-1.854
-3.427
-5.124
-6.943
-8.882
-10.936
-13.1
-15.368
-17.732
-20.185
-22.716
-25.316
-27.973
-30.675
-33.411
-36.166
-38.927
-41.679
-44.408
-47.1
-49.741
-52.315
-54.811
-57.213
-59.509
-61.688
-63.737
-65.645
-67.403
-69.001
-70.432
-71.687
-72.761
-73.649
-74.349
-74.857
-75.174
-75.299
-75.235
-74.985
-74.551
-73.939
-73.155
-72.205
-71.099
-69.845
-68.452
-66.932
-65.296
-63.555
-61.723
-59.811
-57.832
-55.798
-53.722
-51.616
-49.493
-47.364
-45.242
-43.136
-41.058
-39.018
-37.024
-35.087
-33.211
-31.405
-29.674
-28.022
-26.454
-24.971
-23.577
-22.272
-21.057
-19.931
-18.894
-17.943
-17.076
-16.288
-15.576
-14.934
-14.357
-13.839
-13.374
-12.956
-12.578
-12.234
-11.918
-11.622
-11.341
-11.068
-10.797
-10.522
-10.238
-9.939
-9.621
-9.28
-8.913
-8.517
-8.09
-7.631
-7.139
-6.614
-6.055
-5.464
-4.841
-4.188
-3.509
-2.804
-2.078
-1.334
-0.577
0.19
0.963
1.736
2.507
3.27
4.021
4.756
5.472
6.165
6.83
7.465
8.066
8.629
9.151
9.631
10.066
10.455
10.797
11.091
11.337
11.535
11.687
11.794
11.856
11.877
11.857
11.8
11.709
11.587
11.439
11.267
11.076
10.871
10.654
10.429
10.199
9.967
9.736
9.507
9.283
9.066
8.857
8.659
8.472
8.298
8.139
7.995
7.867
7.754
7.656
7.571
7.499
7.438
7.387
7.342
7.304
7.268
7.232
7.194
7.149
7.095
7.028
6.945
6.841
6.715
6.564
6.388
6.185
5.955
5.7
5.421
5.121
4.802
4.468
4.12
3.761
3.393
3.018
2.638
2.256
1.873
1.497
1.132
0.788
0.475
0.202
-0.021
-0.185
-0.282
-0.302
-0.24
-0.093
0.144
0.479
0.921
1.483
2.174
2.995
3.944
5.014
6.186
7.44
8.749
10.084
11.427
12.764
14.094
15.43
16.783
18.169
19.589
21.034
22.496
23.968
25.453
26.956
28.506
30.142
31.911
33.868
36.04
38.437
41.046
43.827
46.721
49.657
52.578
55.459
58.291
61.069
63.784
66.412
68.902
71.191
73.204
74.859
76.105
76.901
77.233
77.122
76.619
75.806
74.743
73.438
71.845
69.899
67.54
64.737
61.502
57.853
53.816
49.418
44.668
39.591
34.199
28.503
22.46
15.907
8.809
1.344
-6.132
-13.021
-18.715
-22.802
-24.788
-24.004
-20.206
-13.6
-4.823
4.62
13.197
19.794
23.009
21.517
14.986
4.008
-9.852
-23.508
-33.41
-36.139
-27.408
-2.7
38.959
94.746
161.428
234.026
313.498
407.427
513.795
623.716
716.026
758.058
734.792
645.034
502.457
336.958
164.903
-1.451
-150.788
-281.703
-383.377
-450.345
-489.389
-504.282
-504.766
-496.715
-475.77
-442.054
-397.247
-344.382
-290.635
-240.255
-194.427
-154.633
-122.027
-96.773
-78.678
-66.942
-60.083
-56.975
-56.882
-58.259
-58.879
-57.494
-53.623
-47.248
-39.026
-29.48
-18.968
-8.471
0.574
7.265
11.223
12.452
11.422
8.542
4.112
-1.322
-7.018
-12.377
-17.009
-20.733
-23.587
-25.618
-26.806
-27.172
-26.78
-25.706
-24.039
-21.863
-19.226
-16.184
-12.831
-9.274
-5.654
-2.14
1.151
4.147
6.795
9.075
10.972
12.465
13.558
14.29
14.697
14.817
14.684
14.316
13.748
13.029
12.212
11.361
10.516
9.704
8.942
8.242
7.613
7.063
6.587
6.169
5.799
5.47
5.178
4.924
4.704
4.508
4.326
4.151
3.975
3.794
3.601
3.389
3.152
2.886
2.588
2.255
1.882
1.463
0.992
0.461
-0.136
-0.806
-1.554
-2.386
-3.307
-4.32
-5.426
-6.626
-7.919
-9.305
-10.78
-12.342
-13.986
-15.709
-17.504
-19.365
-21.287
-23.26
-25.278
-27.33
-29.41
-31.506
-33.61
-35.71
-37.796
-39.858
-41.884
-43.864
-45.786
-47.639
-49.413
-51.096
-52.678
-54.151
-55.503
-56.729
-57.819
-58.767
-59.569
-60.221
-60.719
-61.061
-61.246
-61.275
-61.147
-60.865
-60.431
-59.848
-59.121
-58.254
-57.255
-56.128
-54.883
-53.526
-52.067
-50.514
-48.878
-47.167
-45.392
-43.563
-41.692
-39.787
-37.861
-35.923
-33.985
-32.055
-30.144
-28.26
-26.413
-24.609
-22.856
-21.16
-19.526
-17.961
-16.469
-15.053
-13.718
-12.465
-11.298
-10.218
-9.225
-8.32
-7.503
-6.771
-6.124
-5.56
-5.074
-4.665
-4.328
-4.058
-3.853
-3.706
-3.612
-3.566
-3.563
-3.596
-3.66
-3.75
-3.859
-3.983
-4.118
-4.257
-4.399
-4.537
-4.669
-4.79
-4.897
-4.987
-5.056
-5.1
-5.116
-5.103
-5.056
-4.974
-4.855
-4.696
-4.497
-4.256
-3.972
-3.644
-3.274
-2.86
-2.405
-1.908
-1.372
-0.799
-0.191
0.449
1.118
1.814
2.533
3.271
4.027
4.795
5.574
6.358
7.144
7.927
8.704
9.468
10.215
10.941
11.639
12.304
12.931
13.513
14.045
14.521
14.937
15.285
15.562
15.764
15.885
15.923
15.876
15.742
15.52
15.21
14.813
14.33
13.763
13.114
12.387
11.586
10.715
9.781
8.788
7.743
6.655
5.532
4.383
3.218
2.046
0.879
-0.273
-1.397
-2.482
-3.514
-4.48
-5.369
-6.168
-6.863
-7.443
-7.898
-8.217
-8.393
-8.417
-8.285
-7.992
-7.537
-6.917
-6.131
-5.182
-4.072
-2.803
-1.379
0.194
1.91
3.762
5.74
7.832
10.027
12.312
14.673
17.097
19.565
22.059
24.562
27.062
29.542
31.987
34.377
36.686
38.896
40.995
42.974
44.825
46.541
48.115
49.554
50.88
52.117
53.282
54.389
55.437
56.428
57.379
58.309
59.241
60.185
61.129
62.058
62.97
63.854
64.682
65.398
65.897
66.065
65.82
65.093
63.845
62.052
59.663
56.607
52.841
48.327
43.06
37.09
30.395
22.897
14.687
6.001
-2.706
-10.743
-17.53
-22.685
-25.713
-26.083
-23.618
-18.435
-11.302
-3.743
2.928
7.739
9.645
7.874
2.377
-6.287
-16.149
-23.903
-26.539
-21.083
-4.204
26.754
73.374
134.518
205.167
279.459
353.051
425.511
498.411
568.548
625.302
651.297
629.788
552.988
428.354
273.866
108.458
-48.114
-186.269
-302.366
-390.333
-452.75
-490.648
-503.563
-496.949
-471.047
-427.442
-371.817
-308.385
-244.319
-186.096
-137.13
-100.088
-75.304
-61.615
-57.511
-60.415
-67.337
-75.701
-82.856
-86.689
-86.386
-81.81
-73.421
-62.39
-49.972
-37.396
-26.141
-17.273
-11.18
-7.978
-7.388
-8.844
-11.826
-15.705
-19.745
-23.482
-26.659
-29.095
-30.781
-31.723
-31.892
-31.35
-30.191
-28.467
-26.234
-23.544
-20.449
-17.053
-13.497
-9.925
-6.456
-3.167
-0.12
2.63
5.036
7.068
8.716
9.998
10.927
11.515
11.776
11.734
11.428
10.91
10.236
9.468
8.655
7.83
7.023
6.257
5.546
4.901
4.326
3.813
3.361
2.973
2.649
2.392
2.199
2.063
1.98
1.941
1.939
1.967
2.021
2.092
2.177
2.271
2.371
2.472
2.571
2.66
2.733
2.781
2.795
2.768
2.69
2.553
2.35
2.074
1.719
1.281
0.756
0.142
-0.563
-1.358
-2.245
-3.221
-4.284
-5.432
-6.661
-7.966
-9.342
-10.782
-12.281
-13.83
-15.421
-17.044
-18.691
-20.351
-22.015
-23.672
-25.311
-26.922
-28.494
-30.016
-31.479
-32.87
-34.181
-35.401
-36.522
-37.534
-38.432
-39.209
-39.86
-40.382
-40.772
-41.029
-41.153
-41.144
-41.004
-40.734
-40.339
-39.822
-39.188
-38.443
-37.593
-36.646
-35.611
-34.497
-33.312
-32.066
-30.77
-29.432
-28.065
-26.676
-25.278
-23.878
-22.489
-21.119
-19.777
-18.473
-17.215
-16.01
-14.864
-13.783
-12.771
-11.831
-10.964
-10.173
-9.457
-8.815
-8.248
-7.752
-7.325
-6.964
-6.664
-6.421
-6.228
-6.079
-5.968
-5.887
-5.829
-5.787
-5.753
-5.719
-5.679
-5.624
-5.549
-5.445
-5.306
-5.126
-4.898
-4.618
-4.281
-3.884
-3.425
-2.902
-2.315
-1.666
-0.955
-0.185
0.641
1.519
2.445
3.414
4.421
5.46
6.524
7.608
8.704
9.805
10.904
11.994
13.069
14.122
15.147
16.138
17.089
17.993
18.846
19.643
20.376
21.043
21.639
22.16
22.604
22.97
23.256
23.464
23.595
23.649
23.631
23.543
23.388
23.171
22.896
22.567
22.189
21.768
21.309
20.816
20.294
19.749
19.184
18.603
18.009
17.406
16.796
16.183
15.569
14.959
14.355
13.762
13.185
12.628
12.097
11.593
11.121
10.681
10.276
9.907
9.57
9.266
8.993
8.752
8.544
8.371
8.235
8.139
8.088
8.087
8.141
8.256
8.433
8.675
8.988
9.378
9.859
10.441
11.124
11.908
12.788
13.752
14.789
15.882
16.994
18.096
19.158
20.159
21.098
21.977
22.795
23.554
24.249
24.889
25.507
26.14
26.82
27.584
28.468
29.524
30.842
32.5
34.557
37.058
39.998
43.353
47.101
51.213
55.64
60.311
65.119
69.938
74.684
79.286
83.669
87.741
91.357
94.377
96.707
98.278
99.079
99.127
98.427
97.002
94.916
92.263
89.171
85.784
82.159
78.295
74.207
69.918
65.521
61.128
56.775
52.451
48.109
43.681
39.13
34.45
29.55
24.241
18.419
12.101
5.553
-0.662
-6.043
-10.272
-13.017
-13.867
-12.603
-9.287
-4.472
0.527
4.44
6.462
5.858
2.015
-5.163
-15.177
-26.556
-36.352
-41.44
-39.359
-27.462
-3.227
35.118
88.807
155.543
228.974
303.557
373.819
439.465
506.155
571.914
631.549
672.604
671.07
616.455
506.274
344.363
156.333
-35.213
-210.072
-342.281
-423.952
-457.653
-450.615
-423.918
-396.598
-375.725
-365.081
-361.598
-354.644
-341.2
-320.088
-289.186
-254.608
-219.694
-185.201
-154.245
-125.641
-98.322
-73.801
-52.729
-35.985
-24.474
-17.474
-13.525
-11.665
-10.875
-10.169
-9.011
-7.081
-4.268
-1.104
1.478
2.915
2.814
1
-2.337
-6.958
-12.509
-18.394
-23.937
-28.675
-32.326
-34.782
-36.099
-36.322
-35.512
-33.804
-31.377
-28.386
-24.963
-21.222
-17.254
-13.178
-9.161
-5.344
-1.836
1.287
3.996
6.278
8.121
9.531
10.536
11.172
11.48
11.499
11.257
10.787
10.135
9.352
8.501
7.633
6.782
5.973
5.219
4.529
3.909
3.357
2.861
2.413
2.005
1.635
1.303
1.008
0.744
0.501
0.27
0.044
-0.183
-0.416
-0.661
-0.923
-1.207
-1.514
-1.846
-2.204
-2.593
-3.019
-3.488
-4.004
-4.572
-5.197
-5.884
-6.636
-7.456
-8.346
-9.304
-10.332
-11.427
-12.59
-13.817
-15.107
-16.454
-17.857
-19.309
-20.807
-22.343
-23.91
-25.502
-27.109
-28.724
-30.338
-31.942
-33.527
-35.083
-36.602
-38.074
-39.489
-40.84
-42.116
-43.309
-44.41
-45.413
-46.309
-47.093
-47.758
-48.301
-48.718
-49.006
-49.164
-49.19
-49.086
-48.851
-48.487
-47.998
-47.386
-46.656
-45.814
-44.866
-43.819
-42.681
-41.462
-40.17
-38.815
-37.407
-35.956
-34.472
-32.967
-31.45
-29.932
-28.424
-26.937
-25.48
-24.063
-22.696
-21.387
-20.145
-18.977
-17.889
-16.887
-15.976
-15.161
-14.444
-13.829
-13.317
-12.91
-12.607
-12.409
-12.312
-12.314
-12.412
-12.599
-12.871
-13.221
-13.641
-14.123
-14.661
-15.245
-15.867
-16.517
-17.187
-17.867
-18.548
-19.222
-19.878
-20.509
-21.106
-21.661
-22.167
-22.618
-23.008
-23.332
-23.584
-23.761
-23.859
-23.875
-23.807
-23.652
-23.41
-23.081
-22.665
-22.163
-21.578
-20.914
-20.173
-19.36
-18.48
-17.539
-16.542
-15.495
-14.405
-13.278
-12.121
-10.94
-9.743
-8.537
-7.328
-6.122
-4.927
-3.747
-2.588
-1.455
-0.352
0.715
1.745
2.732
3.675
4.57
5.415
6.207
6.945
7.627
8.253
8.822
9.334
9.79
10.188
10.532
10.821
11.057
11.242
11.377
11.463
11.502
11.496
11.447
11.356
11.226
11.057
10.851
10.61
10.335
10.026
9.684
9.31
8.904
8.466
7.997
7.497
6.965
6.403
5.811
5.188
4.537
3.857
3.149
2.415
1.657
0.876
0.076
-0.742
-1.575
-2.419
-3.27
-4.124
-4.977
-5.824
-6.659
-7.477
-8.271
-9.036
-9.763
-10.447
-11.079
-11.654
-12.163
-12.597
-12.95
-13.214
-13.382
-13.446
-13.4
-13.235
-12.946
-12.528
-11.977
-11.289
-10.461
-9.492
-8.382
-7.134
-5.749
-4.232
-2.587
-0.82
1.062
3.051
5.14
7.32
9.581
11.914
14.306
16.744
19.217
21.71
24.208
26.695
29.155
31.571
33.937
36.24
38.47
40.612
42.647
44.559
46.341
47.983
49.474
50.807
51.978
52.994
53.886
54.682
55.406
56.077
56.703
57.292
57.868
58.454
59.069
59.734
60.444
61.195
62.008
62.881
63.79
64.675
65.409
65.87
65.962
65.605
64.75
63.336
61.262
58.445
54.821
50.326
44.979
38.747
31.474
23.186
14.085
4.563
-4.64
-12.824
-19.541
-24.184
-26.088
-25.083
-21.287
-15.451
-9.224
-4.006
-0.832
-0.948
-5.161
-13.21
-24.176
-35.852
-44.69
-47.308
-40.384
-20.145
16.666
69.831
135.881
210.31
286.59
363.76
447.721
537.971
630.829
713.087
755.651
738.59
650.705
494.338
299.172
97.399
-80.008
-209.89
-294.031
-344.19
-377.719
-410.55
-444.708
-474.883
-492.233
-489.693
-467.229
-429.578
-383.527
-334.155
-283.999
-234.363
-186.009
-140.935
-101.977
-70.606
-47.105
-31.085
-21.523
-17.465
-18.068
-21.638
-25.712
-28.652
-29.704
-28.639
-25.891
-21.934
-17.066
-12.097
-8.31
-6.447
-6.734
-9.081
-12.934
-17.766
-23.219
-28.727
-33.615
-37.474
-40.071
-41.341
-41.431
-40.448
-38.461
-35.623
-32.102
-28.046
-23.622
-18.963
-14.179
-9.415
-4.804
-0.456
3.53
7.1
10.223
12.882
15.075
16.817
18.126
19.038
19.588
19.809
19.745
19.444
18.961
18.357
17.681
16.969
16.253
15.549
14.868
14.217
13.596
12.997
12.417
11.851
11.297
10.757
10.229
9.709
9.191
8.669
8.136
7.59
7.028
6.447
5.847
5.225
4.581
3.919
3.238
2.536
1.809
1.053
0.264
-0.562
-1.429
-2.34
-3.301
-4.314
-5.38
-6.5
-7.675
-8.906
-10.192
-11.532
-12.925
-14.369
-15.86
-17.395
-18.971
-20.581
-22.221
-23.883
-25.559
-27.244
-28.929
-30.606
-32.265
-33.899
-35.498
-37.054
-38.557
-39.997
-41.366
-42.654
-43.854
-44.956
-45.953
-46.837
-47.603
-48.244
-48.756
-49.134
-49.376
-49.478
-49.44
-49.261
-48.941
-48.482
-47.886
-47.157
-46.297
-45.314
-44.212
-42.998
-41.681
-40.268
-38.768
-37.191
-35.546
-33.845
-32.097
-30.314
-28.507
-26.689
-24.87
-23.062
-21.276
-19.522
-17.811
-16.153
-14.557
-13.031
-11.584
-10.222
-8.951
-7.778
-6.707
-5.742
-4.885
-4.138
-3.502
-2.977
-2.561
-2.253
-2.05
-1.949
-1.944
-2.032
-2.205
-2.458
-2.783
-3.174
-3.62
-4.114
-4.646
-5.206
-5.785
-6.374
-6.962
-7.541
-8.1
-8.632
-9.128
-9.579
-9.979
-10.321
-10.599
-10.806
-10.94
-10.996
-10.972
-10.865
-10.674
-10.398
-10.039
-9.596
-9.071
-8.467
-7.786
-7.031
-6.206
-5.315
-4.365
-3.36
-2.306
-1.21
-0.08
1.078
2.256
3.446
4.64
5.83
7.007
8.165
9.296
10.392
11.446
12.452
13.405
14.298
15.128
15.891
16.584
17.204
17.75
18.22
18.612
18.927
19.164
19.323
19.406
19.413
19.345
19.206
18.997
18.722
18.384
17.985
17.532
17.028
16.478
15.887
15.262
14.609
13.933
13.242
12.541
11.838
11.137
10.444
9.765
9.103
8.463
7.846
7.257
6.696
6.167
5.671
5.21
4.783
4.394
4.041
3.726
3.448
3.207
3.001
2.829
2.689
2.579
2.498
2.442
2.409
2.394
2.395
2.408
2.427
2.447
2.464
2.472
2.468
2.447
2.405
2.341
2.253
2.142
2.009
1.856
1.682
1.49
1.281
1.057
0.819
0.566
0.298
0.018
-0.268
-0.555
-0.835
-1.099
-1.34
-1.548
-1.709
-1.813
-1.853
-1.825
-1.722
-1.538
-1.259
-0.869
-0.359
0.272
1.025
1.899
2.889
3.986
5.167
6.396
7.639
8.875
10.096
11.309
12.515
13.712
14.899
16.076
17.26
18.479
19.745
21.068
22.462
23.952
25.593
27.465
29.627
32.105
34.901
37.994
41.368
45.002
48.857
52.88
56.992
61.12
65.214
69.242
73.157
76.894
80.355
83.416
85.995
88.044
89.53
90.441
90.762
90.479
89.61
88.193
86.259
83.828
80.882
77.37
73.275
68.595
63.36
57.649
51.486
44.863
37.794
30.283
22.351
14.088
5.509
-3.437
-12.615
-21.775
-30.509
-38.145
-44.126
-48.072
-49.449
-47.724
-42.775
-34.728
-24.283
-12.855
-1.646
8.341
15.896
20.118
20.955
19.07
16.254
15.314
19.187
31.072
54.414
92.452
144.866
207.441
276.063
345.966
418.034
498.948
586.767
672.254
736.327
751.202
702.089
588.833
425.214
237.03
47.838
-123.854
-267.011
-376.1
-451.612
-500.387
-527.655
-539.739
-538.56
-519.689
-483.152
-430.936
-367.564
-301.765
-239.067
-182.351
-134.508
-96.698
-69.027
-51.326
-42.095
-38.982
-40.165
-43.895
-47.859
-50.047
-49.372
-45.449
-38.705
-30.116
-20.46
-10.512
-1.49
5.398
9.51
10.683
9.208
5.698
0.659
-5.44
-11.926
-18.084
-23.431
-27.689
-30.787
-32.81
-33.794
-33.752
-32.757
-30.928
-28.399
-25.302
-21.742
-17.812
-13.629
-9.331
-5.086
-1.04
2.704
6.08
9.051
11.598
13.7
15.355
16.581
17.412
17.887
18.046
17.924
17.561
17.008
16.322
15.566
14.794
14.037
13.316
12.645
12.028
11.472
10.977
10.53
10.122
9.746
9.396
9.074
8.775
8.491
8.213
7.93
7.634
7.32
6.981
6.613
6.21
5.768
5.285
4.76
4.192
3.575
2.904
2.174
1.38
0.516
-0.421
-1.436
-2.531
-3.708
-4.965
-6.302
-7.715
-9.202
-10.758
-12.38
-14.061
-15.797
-17.58
-19.405
-21.265
-23.15
-25.054
-26.966
-28.877
-30.78
-32.664
-34.52
-36.339
-38.111
-39.828
-41.482
-43.064
-44.565
-45.978
-47.293
-48.505
-49.607
-50.592
-51.456
-52.195
-52.805
-53.287
-53.639
-53.861
-53.955
-53.924
-53.769
-53.494
-53.103
-52.601
-51.992
-51.283
-50.478
-49.586
-48.613
-47.565
-46.45
-45.275
-44.047
-42.773
-41.461
-40.118
-38.75
-37.365
-35.969
-34.571
-33.176
-31.792
-30.425
-29.08
-27.764
-26.482
-25.237
-24.034
-22.876
-21.767
-20.708
-19.701
-18.748
-17.85
-17.009
-16.223
-15.494
-14.82
-14.201
-13.637
-13.126
-12.666
-12.256
-11.894
-11.579
-11.308
-11.08
-10.891
-10.74
-10.624
-10.539
-10.483
-10.451
-10.44
-10.447
-10.467
-10.496
-10.53
-10.566
-10.599
-10.626
-10.642
-10.645
-10.632
-10.598
-10.541
-10.458
-10.347
-10.206
-10.031
-9.821
-9.575
-9.29
-8.965
-8.6
-8.194
-7.746
-7.256
-6.723
-6.149
-5.534
-4.879
-4.186
-3.455
-2.691
-1.895
-1.072
-0.225
0.642
1.524
2.417
3.315
4.214
5.108
5.993
6.864
7.715
8.542
9.34
10.104
10.831
11.515
12.154
12.743
13.28
13.761
14.186
14.55
14.854
15.095
15.273
15.386
15.436
15.421
15.344
15.205
15.007
14.751
14.442
14.082
13.677
13.23
12.747
12.232
11.69
11.128
10.549
9.96
9.367
8.773
8.186
7.608
7.046
6.503
5.982
5.487
5.02
4.584
4.179
3.807
3.47
3.167
2.9
2.668
2.47
2.306
2.173
2.07
1.993
1.938
1.904
1.884
1.876
1.876
1.878
1.878
1.872
1.856
1.824
1.773
1.699
1.597
1.465
1.301
1.102
0.868
0.598
0.295
-0.04
-0.402
-0.79
-1.2
-1.628
-2.073
-2.531
-2.996
-3.467
-3.937
-4.399
-4.844
-5.26
-5.634
-5.955
-6.211
-6.392
-6.49
-6.493
-6.396
-6.194
-5.883
-5.455
-4.902
-4.209
-3.365
-2.369
-1.226
0.054
1.45
2.944
4.521
6.151
7.815
9.503
11.211
12.954
14.753
16.609
18.518
20.457
22.403
24.353
26.311
28.284
30.299
32.374
34.533
36.821
39.267
41.872
44.619
47.446
50.278
53.067
55.788
58.439
61.026
63.531
65.929
68.192
70.28
72.152
73.759
75.024
75.887
76.314
76.305
75.909
75.194
74.201
72.94
71.372
69.459
67.177
64.489
61.375
57.818
53.804
49.368
44.564
39.421
33.973
28.217
22.112
15.676
8.886
1.671
-5.821
-13.347
-20.536
-26.738
-31.409
-34.205
-34.594
-32.066
-26.6
-18.433
-8.43
1.768
10.846
17.817
21.513
21.143
16.786
9.169
0.318
-6.502
-8.175
-1.603
16.655
49.638
97.135
155.589
220.451
285.699
351.575
425.713
509.098
597.781
675.819
710.783
681.236
577.981
408.36
206.345
4.735
-168.823
-295.559
-378.942
-428.887
-459.064
-482.374
-500.231
-508.929
-501.644
-473.862
-428.635
-372.537
-313.226
-255.893
-202.421
-154.081
-112.51
-79.374
-55.337
-39.657
-30.777
-27.416
-28.606
-33.095
-38.928
-43.943
-46.844
-47.337
-45.763
-42.543
-37.985
-32.539
-27.122
-22.904
-20.547
-20.122
-21.321
-23.675
-26.82
-30.447
-34.071
-37.083
-39.093
-39.941
-39.649
-38.382
-36.269
-33.385
-29.861
-25.876
-21.608
-17.233
-12.906
-8.703
-4.695
-0.957
2.44
5.431
7.972
10.06
11.713
12.947
13.778
14.227
14.32
14.106
13.643
12.992
12.217
11.365
10.471
9.567
8.682
7.837
7.047
6.313
5.629
4.996
4.416
3.891
3.425
3.013
2.651
2.331
2.047
1.794
1.566
1.357
1.162
0.977
0.799
0.626
0.456
0.285
0.11
-0.078
-0.284
-0.516
-0.781
-1.086
-1.438
-1.844
-2.309
-2.838
-3.433
-4.099
-4.838
-5.651
-6.54
-7.504
-8.544
-9.658
-10.843
-12.096
-13.414
-14.79
-16.219
-17.694
-19.208
-20.751
-22.315
-23.892
-25.47
-27.041
-28.594
-30.117
-31.602
-33.036
-34.411
-35.715
-36.939
-38.073
-39.108
-40.036
-40.85
-41.543
-42.11
-42.545
-42.846
-43.009
-43.032
-42.915
-42.656
-42.257
-41.72
-41.047
-40.243
-39.311
-38.257
-37.089
-35.813
-34.437
-32.971
-31.425
-29.807
-28.13
-26.404
-24.64
-22.85
-21.045
-19.237
-17.437
-15.656
-13.905
-12.195
-10.535
-8.934
-7.401
-5.944
-4.569
-3.283
-2.091
-0.998
-0.007
0.879
1.656
2.326
2.886
3.338
3.684
3.924
4.064
4.107
4.058
3.922
3.707
3.42
3.068
2.659
2.202
1.707
1.181
0.635
0.077
-0.483
-1.036
-1.574
-2.088
-2.571
-3.015
-3.414
-3.762
-4.054
-4.284
-4.451
-4.549
-4.577
-4.534
-4.417
-4.228
-3.965
-3.631
-3.228
-2.757
-2.223
-1.629
-0.979
-0.28
0.465
1.248
2.065
2.908
3.77
4.646
5.527
6.407
7.277
8.132
8.965
9.767
10.535
11.262
11.942
12.572
13.148
13.667
14.125
14.521
14.852
15.118
15.318
15.452
15.522
15.529
15.474
15.361
15.192
14.97
14.699
14.382
14.021
13.622
13.187
12.72
12.225
11.706
11.166
10.61
10.043
9.469
8.891
8.315
7.744
7.18
6.627
6.087
5.563
5.054
4.564
4.092
3.639
3.207
2.794
2.398
2.02
1.658
1.309
0.972
0.643
0.32
0.004
-0.307
-0.613
-0.915
-1.211
-1.501
-1.78
-2.048
-2.304
-2.545
-2.77
-2.981
-3.174
-3.353
-3.517
-3.666
-3.798
-3.909
-3.994
-4.046
-4.058
-4.023
-3.933
-3.781
-3.56
-3.265
-2.896
-2.45
-1.92
-1.297
-0.568
0.274
1.227
2.292
3.46
4.717
6.043
7.402
8.755
10.08
11.361
12.596
13.798
14.975
16.136
17.297
18.456
19.615
20.784
21.961
23.15
24.379
25.692
27.156
28.852
30.82
33.072
35.602
38.373
41.342
44.448
47.606
50.757
53.862
56.899
59.866
62.75
65.501
68.047
70.295
72.136
73.514
74.4
74.775
74.659
74.087
73.135
71.911
70.48
68.85
66.969
64.766
62.191
59.242
55.949
52.339
48.436
44.228
39.691
34.825
29.669
24.207
18.304
11.886
5.016
-2.017
-8.605
-14.226
-18.645
-21.553
-22.491
-21.203
-17.63
-12.231
-6.366
-1.12
3.213
5.9
5.857
2.777
-3.513
-10.897
-13.761
-9.81
0.662
16.259
31.477
49.003
77.073
120.118
186.032
271.251
364.918
464.968
559.888
641.255
702.484
719.594
681.28
583.842
427.453
238.621
41.944
-140.523
-282.768
-380.38
-436.47
-459.806
-470.842
-478.44
-483.556
-483.154
-467.004
-432.882
-385.308
-329.457
-272.644
-218.853
-169.007
-125.137
-89.017
-61.198
-41.819
-30.1
-24.507
-23.924
-27.132
-31.959
-36.162
-38.402
-38.052
-35.183
-30.39
-24.135
-16.979
-10.03
-4.507
-1.111
-0.04
-1.061
-3.662
-7.39
-11.841
-16.429
-20.508
-23.674
-25.732
-26.67
-26.617
-25.666
-23.875
-21.364
-18.293
-14.799
-11.03
-7.112
-3.143
0.743
4.421
7.787
10.753
13.266
15.306
16.865
17.946
18.57
18.761
18.552
17.986
17.1
15.944
14.574
13.049
11.438
9.798
8.172
6.6
5.108
3.714
2.432
1.268
0.221
-0.707
-1.514
-2.197
-2.753
-3.181
-3.482
-3.662
-3.728
-3.686
-3.541
-3.299
-2.967
-2.551
-2.057
-1.492
-0.861
-0.172
0.564
1.335
2.127
2.928
3.722
4.498
5.239
5.932
6.565
7.125
7.602
7.986
8.269
8.44
8.495
8.426
8.229
7.902
7.442
6.848
6.122
5.265
4.282
3.177
1.958
0.63
-0.798
-2.316
-3.913
-5.58
-7.304
-9.073
-10.873
-12.692
-14.515
-16.328
-18.118
-19.871
-21.572
-23.21
-24.772
-26.247
-27.623
-28.891
-30.043
-31.071
-31.968
-32.729
-33.348
-33.825
-34.155
-34.34
-34.379
-34.275
-34.031
-33.651
-33.142
-32.51
-31.761
-30.905
-29.95
-28.906
-27.781
-26.588
-25.336
-24.037
-22.703
-21.344
-19.973
-18.601
-17.239
-15.898
-14.587
-13.317
-12.096
-10.933
-9.835
-8.809
-7.862
-6.998
-6.221
-5.536
-4.944
-4.447
-4.044
-3.734
-3.515
-3.385
-3.339
-3.372
-3.479
-3.656
-3.894
-4.189
-4.532
-4.916
-5.333
-5.775
-6.234
-6.701
-7.167
-7.625
-8.066
-8.484
-8.87
-9.218
-9.522
-9.777
-9.977
-10.116
-10.192
-10.2
-10.138
-10.003
-9.795
-9.514
-9.16
-8.735
-8.241
-7.682
-7.061
-6.383
-5.652
-4.873
-4.052
-3.193
-2.304
-1.39
-0.458
0.485
1.432
2.375
3.309
4.226
5.12
5.984
6.812
7.6
8.342
9.032
9.667
10.242
10.753
11.197
11.572
11.875
12.106
12.264
12.349
12.363
12.308
12.184
11.996
11.746
11.438
11.074
10.66
10.199
9.695
9.154
8.581
7.982
7.36
6.723
6.075
5.421
4.768
4.119
3.48
2.856
2.25
1.667
1.111
0.587
0.097
-0.356
-0.768
-1.138
-1.465
-1.747
-1.985
-2.178
-2.327
-2.435
-2.501
-2.529
-2.521
-2.478
-2.405
-2.305
-2.181
-2.038
-1.878
-1.707
-1.528
-1.347
-1.166
-0.992
-0.826
-0.675
-0.541
-0.428
-0.339
-0.279
-0.249
-0.252
-0.291
-0.367
-0.48
-0.632
-0.821
-1.047
-1.308
-1.602
-1.927
-2.279
-2.654
-3.047
-3.453
-3.866
-4.28
-4.687
-5.079
-5.45
-5.792
-6.095
-6.353
-6.556
-6.695
-6.764
-6.753
-6.655
-6.463
-6.168
-5.765
-5.248
-4.612
-3.854
-2.97
-1.959
-0.822
0.441
1.829
3.338
4.966
6.706
8.554
10.501
12.542
14.669
16.872
19.14
21.46
23.819
26.204
28.602
30.998
33.375
35.714
38.002
40.227
42.379
44.445
46.41
48.252
49.956
51.516
52.927
54.185
55.287
56.229
57.021
57.689
58.263
58.769
59.223
59.629
59.993
60.336
60.682
61.059
61.482
61.948
62.441
62.97
63.53
64.097
64.621
64.997
65.096
64.824
64.104
62.876
61.118
58.764
55.723
51.963
47.451
42.187
36.234
29.538
21.995
13.734
5.03
-3.689
-11.775
-18.701
-24.03
-27.096
-27.375
-24.844
-19.801
-13.045
-5.6
1.425
6.47
8.203
5.848
0.875
-2.852
-3.552
-0.591
4.866
8.81
16.022
35.003
70.892
132.774
216.985
312.566
417.302
519.255
607.737
675.024
698.943
666.306
577.874
440.607
278.247
117.672
-27.378
-148.934
-246.154
-326.552
-391.472
-440.259
-474.201
-489.496
-485.48
-464.224
-427.461
-380.984
-330.279
-279.048
-230.605
-186.507
-148.225
-117.691
-95.357
-80.733
-72.819
-69.737
-69.923
-71.98
-73.831
-73.697
-70.801
-64.881
-56.302
-46.006
-34.701
-23.245
-12.986
-4.899
0.541
3.155
3.264
1.395
-2.092
-6.696
-11.754
-16.776
-21.344
-25.187
-28.282
-30.63
-32.22
-33.089
-33.276
-32.814
-31.778
-30.24
-28.261
-25.926
-23.293
-20.437
-17.457
-14.464
-11.597
-8.962
-6.614
-4.591
-2.915
-1.603
-0.672
-0.119
0.098
0.018
-0.318
-0.875
-1.634
-2.562
-3.613
-4.737
-5.879
-7.001
-8.081
-9.101
-10.045
-10.902
-11.663
-12.329
-12.913
-13.426
-13.871
-14.252
-14.569
-14.827
-15.036
-15.205
-15.344
-15.46
-15.559
-15.649
-15.739
-15.835
-15.943
-16.067
-16.211
-16.38
-16.581
-16.82
-17.105
-17.442
-17.838
-18.3
-18.832
-19.441
-20.128
-20.897
-21.747
-22.681
-23.697
-24.794
-25.969
-27.22
-28.543
-29.933
-31.384
-32.889
-34.44
-36.029
-37.647
-39.285
-40.935
-42.586
-44.229
-45.853
-47.45
-49.009
-50.521
-51.976
-53.363
-54.674
-55.9
-57.031
-58.059
-58.978
-59.78
-60.459
-61.011
-61.432
-61.717
-61.865
-61.874
-61.742
-61.47
-61.059
-60.511
-59.829
-59.018
-58.082
-57.029
-55.863
-54.593
-53.227
-51.772
-50.237
-48.63
-46.96
-45.236
-43.468
-41.664
-39.834
-37.987
-36.134
-34.282
-32.441
-30.618
-28.823
-27.062
-25.342
-23.67
-22.053
-20.496
-19.005
-17.585
-16.239
-14.972
-13.787
-12.685
-11.666
-10.731
-9.879
-9.108
-8.415
-7.797
-7.251
-6.773
-6.358
-6.003
-5.701
-5.448
-5.237
-5.064
-4.923
-4.806
-4.71
-4.627
-4.552
-4.481
-4.408
-4.328
-4.238
-4.131
-4.005
-3.854
-3.674
-3.462
-3.214
-2.926
-2.598
-2.226
-1.81
-1.35
-0.846
-0.299
0.289
0.917
1.581
2.28
3.009
3.766
4.545
5.344
6.158
6.982
7.812
8.642
9.47
10.291
11.102
11.898
12.677
13.435
14.169
14.877
15.556
16.202
16.813
17.387
17.92
18.411
18.859
19.261
19.618
19.929
20.194
20.413
20.588
20.72
20.809
20.859
20.871
20.848
20.792
20.707
20.596
20.461
20.306
20.133
19.945
19.745
19.534
19.314
19.086
18.851
18.611
18.367
18.119
17.868
17.615
17.36
17.104
16.847
16.589
16.33
16.07
15.809
15.546
15.28
15.013
14.742
14.467
14.187
13.901
13.609
13.309
13.001
12.682
12.353
12.013
11.661
11.298
10.924
10.539
10.145
9.742
9.334
8.921
8.506
8.091
7.679
7.272
6.874
6.487
6.114
5.759
5.423
5.111
4.823
4.564
4.334
4.136
3.971
3.841
3.748
3.691
3.673
3.693
3.751
3.849
3.984
4.158
4.367
4.611
4.888
5.194
5.529
5.887
6.265
6.66
7.067
7.482
7.898
8.312
8.719
9.112
9.487
9.839
10.162
10.453
10.707
10.92
11.09
11.213
11.287
11.312
11.286
11.21
11.083
10.906
10.681
10.411
10.097
9.744
9.357
8.939
8.495
8.033
7.559
7.08
6.604
6.139
5.692
5.274
4.893
4.56
4.282
4.069
3.931
3.875
3.912
4.048
4.29
4.644
5.116
5.708
6.425
7.268
8.234
9.325
10.537
11.867
13.31
14.861
16.512
18.259
20.093
22.006
23.989
26.031
28.12
30.245
32.393
34.547
36.695
38.819
40.905
42.945
44.929
46.843
48.676
50.406
52.019
53.506
54.861
56.071
57.131
58.039
58.802
59.453
60.018
60.519
60.975
61.393
61.78
62.164
62.567
63.014
63.527
64.1
64.733
65.445
66.234
67.072
67.898
68.587
69.017
69.099
68.754
67.933
66.574
64.568
61.819
58.253
53.798
48.466
42.221
34.911
26.562
17.381
7.77
-1.542
-9.893
-16.873
-21.923
-24.404
-24.123
-21.15
-16.199
-10.824
-6.257
-3.343
-3.124
-6.3
-12.738
-21.734
-31.109
-37.362
-37.623
-29.053
-8.36
27.015
78.542
144.756
220.261
298.961
376.447
452.826
530.555
606.739
672.286
710.327
700.73
633.618
511.129
346.489
164.695
-10.31
-163.216
-283.289
-372.118
-439.155
-488.997
-526.905
-552.599
-558.389
-541.838
-503.729
-447.925
-383.064
-316.001
-250.713
-190.4
-137.691
-94.79
